desired_name_0,desired_name_1,ppg_2,ppg_3,ppg_4,ppg_5,ppg_6,ppg_7,ppg_8,ppg_9,ppg_10,ppg_11,ppg_12,ppg_13,ppg_14,ppg_15,ppg_16,ppg_17,ppg_18,ppg_19,ppg_20,ppg_21,ppg_22,ppg_23,ppg_24,ppg_25,ppg_26,ppg_27,ppg_28,ppg_29,ppg_30,ppg_31,ppg_32,ppg_33,ppg_34,ppg_35,ppg_36,ppg_37,ppg_38,ppg_39,ppg_40,ppg_41,ppg_42,ppg_43,ppg_44,ppg_45,ppg_46,ppg_47,ppg_48,ppg_49,ppg_50,ppg_51,ppg_52,ppg_53,ppg_54,ppg_55,ppg_56,ppg_57,ppg_58,ppg_59,ppg_60,ppg_61,ppg_62,ppg_63,ppg_64,ppg_65,ppg_66,ppg_67,ppg_68,ppg_69,ppg_70,ppg_71,ppg_72,ppg_73,ppg_74,ppg_75,ppg_76,ppg_77,ppg_78,ppg_79,ppg_80,ppg_81,ppg_82,ppg_83,ppg_84,ppg_85,ppg_86,ppg_87,ppg_88,ppg_89,ppg_90,ppg_91,ppg_92,ppg_93,ppg_94,ppg_95,ppg_96,ppg_97,ppg_98,ppg_99,ppg_100,ppg_101,ppg_102,ppg_103,ppg_104,ppg_105,ppg_106,ppg_107,ppg_108,ppg_109,ppg_110,ppg_111,ppg_112,ppg_113,ppg_114,ppg_115,ppg_116,ppg_117,ppg_118,ppg_119,ppg_120,ppg_121,ppg_122,ppg_123,ppg_124,ppg_125,ppg_126,ppg_127,ppg_128,ppg_129,ppg_130,ppg_131,ppg_132,ppg_133,ppg_134,ppg_135,ppg_136,ppg_137,ppg_138,ppg_139,ppg_140,ppg_141,ppg_142,ppg_143,ppg_144,ppg_145,ppg_146,ppg_147,ppg_148,ppg_149,ppg_150,ppg_151,ppg_152,ppg_153,ppg_154,ppg_155,ppg_156,ppg_157,ppg_158,ppg_159,ppg_160,ppg_161,ppg_162,ppg_163,ppg_164,ppg_165,ppg_166,ppg_167,ppg_168,ppg_169,ppg_170,ppg_171,ppg_172,ppg_173,ppg_174,ppg_175,ppg_176,ppg_177,ppg_178,ppg_179,ppg_180,ppg_181,ppg_182,ppg_183,ppg_184,ppg_185,ppg_186,ppg_187,ppg_188,ppg_189,ppg_190,ppg_191,ppg_192,ppg_193,ppg_194,ppg_195,ppg_196,ppg_197,ppg_198,ppg_199,spo2,heartRate,userAge,userGender,userHeight,userWeight,userBmi,systolic_BP,diastolic_BP,ir_0,ir_1,ir_2,ir_3,ir_4,ir_5,ir_6,ir_7,ir_8,ir_9,ir_10,ir_11,ir_12,ir_13,ir_14,ir_15,ir_16,ir_17,ir_18,ir_19,ir_20,ir_21,ir_22,ir_23,ir_24,ir_25,ir_26,ir_27,ir_28,ir_29,ir_30,ir_31,ir_32,ir_33,ir_34,ir_35,ir_36,ir_37,ir_38,ir_39,ir_40,ir_41,ir_42,ir_43,ir_44,ir_45,ir_46,ir_47,ir_48,ir_49,ir_50,ir_51,ir_52,ir_53,ir_54,ir_55,ir_56,ir_57,ir_58,ir_59,ir_60,ir_61,ir_62,ir_63,ir_64,ir_65,ir_66,ir_67,ir_68,ir_69,ir_70,ir_71,ir_72,ir_73,ir_74,ir_75,ir_76,ir_77,ir_78,ir_79,ir_80,ir_81,ir_82,ir_83,ir_84,ir_85,ir_86,ir_87,ir_88,ir_89,ir_90,ir_91,ir_92,ir_93,ir_94,ir_95,ir_96,ir_97,ir_98,ir_99,ir_100,ir_101,ir_102,ir_103,ir_104,ir_105,ir_106,ir_107,ir_108,ir_109,ir_110,ir_111,ir_112,ir_113,ir_114,ir_115,ir_116,ir_117,ir_118,ir_119,ir_120,ir_121,ir_122,ir_123,ir_124,ir_125,ir_126,ir_127,ir_128,ir_129,ir_130,ir_131,ir_132,ir_133,ir_134,ir_135,ir_136,ir_137,ir_138,ir_139,ir_140,ir_141,ir_142,ir_143,ir_144,ir_145,ir_146,ir_147,ir_148,ir_149,ir_150,ir_151,ir_152,ir_153,ir_154,ir_155,ir_156,ir_157,ir_158,ir_159,ir_160,ir_161,ir_162,ir_163,ir_164,ir_165,ir_166,ir_167,ir_168,ir_169,ir_170,ir_171,ir_172,ir_173,ir_174,ir_175,ir_176,ir_177,ir_178,ir_179,ir_180,ir_181,ir_182,ir_183,ir_184,ir_185,ir_186,ir_187,ir_188,ir_189,ir_190,ir_191,ir_192,ir_193,ir_194,ir_195,ir_196,ir_197,ir_198,ir_199,red_0,red_1,red_2,red_3,red_4,red_5,red_6,red_7,red_8,red_9,red_10,red_11,red_12,red_13,red_14,red_15,red_16,red_17,red_18,red_19,red_20,red_21,red_22,red_23,red_24,red_25,red_26,red_27,red_28,red_29,red_30,red_31,red_32,red_33,red_34,red_35,red_36,red_37,red_38,red_39,red_40,red_41,red_42,red_43,red_44,red_45,red_46,red_47,red_48,red_49,red_50,red_51,red_52,red_53,red_54,red_55,red_56,red_57,red_58,red_59,red_60,red_61,red_62,red_63,red_64,red_65,red_66,red_67,red_68,red_69,red_70,red_71,red_72,red_73,red_74,red_75,red_76,red_77,red_78,red_79,red_80,red_81,red_82,red_83,red_84,red_85,red_86,red_87,red_88,red_89,red_90,red_91,red_92,red_93,red_94,red_95,red_96,red_97,red_98,red_99,red_100,red_101,red_102,red_103,red_104,red_105,red_106,red_107,red_108,red_109,red_110,red_111,red_112,red_113,red_114,red_115,red_116,red_117,red_118,red_119,red_120,red_121,red_122,red_123,red_124,red_125,red_126,red_127,red_128,red_129,red_130,red_131,red_132,red_133,red_134,red_135,red_136,red_137,red_138,red_139,red_140,red_141,red_142,red_143,red_144,red_145,red_146,red_147,red_148,red_149,red_150,red_151,red_152,red_153,red_154,red_155,red_156,red_157,red_158,red_159,red_160,red_161,red_162,red_163,red_164,red_165,red_166,red_167,red_168,red_169,red_170,red_171,red_172,red_173,red_174,red_175,red_176,red_177,red_178,red_179,red_180,red_181,red_182,red_183,red_184,red_185,red_186,red_187,red_188,red_189,red_190,red_191,red_192,red_193,red_194,red_195,red_196,red_197,red_198,red_199
53935.0,53939.60714280455,53930.81575406587,53933.76913064532,53922.3474182356,53922.92603295304,53893.68795280227,53892.566191492326,53898.95935802218,53888.49259492824,53885.19243291641,53893.40623254597,53930.714890931195,53929.44984007567,53926.90635639641,53910.97955146515,53871.39183158418,53902.35589067158,53920.516128130315,53920.46173802104,53924.765771114784,53906.38906499435,53905.65703199074,53901.255956596535,53903.40062331972,53902.00000000002,53899.18813971187,53917.96247227001,53922.63410610929,53921.36258563188,53913.938719947495,53916.51827306299,53918.44361091179,53893.26616582942,53881.20446006502,53894.99534528305,53913.55551937718,53909.01785755209,53909.033098727006,53914.04115440384,53908.38260435735,53917.72660863871,53916.02800046984,53919.288385885695,53918.572964382794,53912.555720126584,53921.24045310992,53898.152665565794,53885.28173294767,53884.83566419405,53885.99999999999,53910.160961460686,53913.6861866633,53916.1955183937,53918.51359596803,53920.64334478549,53918.02979994292,53884.27476220399,53873.90436097419,53899.577319881064,53925.04417160755,53905.18733348983,53871.47817807026,53872.673583574244,53871.68065259922,53885.33558242637,53896.54707080532,53894.630106592835,53902.764573250126,53901.986261340324,53903.945775855456,53882.69040215842,53863.66957932038,53874.15030263539,53871.89903184657,53872.99999999999,53873.61825107661,53872.9637904715,53873.94678164156,53877.7423066278,53894.13380716651,53890.45772014156,53889.04681121855,53906.465689326105,53914.256169157496,53904.00956029279,53889.23726122978,53892.76814581992,53892.99924528892,53877.59675836999,53867.78611838683,53886.534326680936,53907.82364827804,53903.200788741706,53904.1298521445,53884.50606019441,53868.14816924946,53892.85173553269,53897.42324796981,53901.11766593345,53899.00000000002,53865.61218275537,53857.82163265115,53863.02969850277,53859.93181565316,53861.308995041356,53861.08006660011,53868.563309978395,53872.471657214126,53864.181253823575,53864.02500771797,53861.33941396835,53864.46884300512,53887.341755370275,53891.05254179302,53889.27029732802,53897.387735597746,53891.327174429316,53895.928716337774,53909.604111139626,53911.505358951625,53899.91018857997,53888.688630765035,53896.688345806644,53889.793235492354,53878.0,53879.482521056365,53864.866462725084,53858.850877079414,53858.8684463498,53864.011627605476,53894.24879524803,53895.92029013984,53877.67667182524,53876.37975318255,53875.65825355195,53874.2727789535,53851.40999099543,53850.797529196134,53890.78513581128,53897.63330673592,53900.64582943502,53886.22990487282,53845.22306089365,53848.39122126839,53846.49011568279,53839.64213307673,53844.99916150354,53845.00020472044,53865.70425991814,53862.00000000001,53859.15145569605,53867.42194339676,53853.79653494276,53876.617641967285,53895.88561137169,53895.38169948707,53908.11524523288,53908.276821510386,53913.11714982072,53893.69943094545,53855.40452098765,53865.54265088879,53882.85305920439,53881.63888778365,53886.9209021528,53870.978806739906,53853.29594714705,53855.903542478394,53843.664772344724,53841.11549677802,53844.76393628913,53844.71022974544,53858.699295445214,53851.07349536111,53846.00000000001,53847.61327246329,53841.68674345564,53860.22776750438,53875.91169761885,53868.31145688888,53848.24671769852,53847.49526232573,53851.75276130909,53846.26656499641,53855.28374697099,53847.62033187425,53851.233538119144,53851.48218698696,53844.685554407406,53864.179985128445,53853.7982050947,53876.87861597138,53914.077609409345,53911.97787891503,53914.20359332755,53902.07749582104,53912.295166844786,53886.24127360882,53869.37246030398,100.0,107.0,44,1,180.0,98,30.24691358024691,122,83,53465.00000000003,53481.28790124356,53021.54462893034,53244.859817248725,52954.34176348893,53349.00508570192,53214.617772952384,53132.63277141217,53228.182842821385,53078.39350350653,53252.902064032205,53209.54787655663,53100.11730702587,53080.90813616805,53317.92867800344,53219.29918884114,53010.42854769821,53106.03160013006,52933.8955890755,53095.03920681651,53079.488710702826,53019.34332128566,53185.179262097714,52949.08044529427,52892.79091820031,52992.672999208335,53175.555994258,53040.59464957614,52753.91681148108,52839.38531919734,52787.79172951858,52771.73071078671,52790.24106310375,52972.680218701214,53101.34326609793,52987.90541976898,52867.95226551526,52747.52187808672,53000.84057388807,52788.69261499164,52802.38596295216,53265.39701308493,52732.58859423325,52679.98807974416,52794.96897194691,52520.396581152185,52983.861786436624,53036.636447615165,52865.6780293858,53072.04544972905,52989.29626130615,52852.41746203853,52693.80563866915,52549.62235485034,52615.741567467376,52781.61779447572,53053.24882618515,53118.28091272549,52963.30198010305,53088.80234092489,53237.8356390968,53184.80020274936,53148.788014281934,53107.88475010413,53106.20942541963,53049.65227473524,52892.12209961702,52625.22255761522,52510.00699166928,52858.148167438776,52998.63387450811,52788.83658406049,52834.84175226194,53049.83689269902,53177.21743114685,53193.68629625791,52938.41108246281,52647.31215878822,52805.50363006727,52927.69405646759,52834.82108676931,52972.8335294447,53062.08933525049,52924.97703491787,52760.76373035304,52723.84183542826,52838.551911538365,53021.172892304734,53046.00918045539,52880.324692446215,52861.08971503103,52874.88597357561,52760.95003392417,52595.79026562886,52619.22909506447,52795.90666480799,52725.41802367424,52664.5842149734,52656.72744531912,52654.8563423614,52641.8872036295,52564.42335236338,52813.80112817947,52787.21357753218,52508.95219225599,52586.61909765966,52592.6351659068,52756.98449925101,52709.87992036576,52390.38354609869,52626.29622258491,52553.98212585428,52420.89485230678,52551.86891288019,52136.59920995063,52249.342045410725,52494.712259928965,52352.30125482406,52452.50426467002,52138.24571754712,52283.554793025,52370.26192578983,52050.67238493675,52451.8805387449,52130.04989641709,51939.29490832762,52251.39369985064,52093.54200563513,52294.139429511255,52179.2805188635,52116.00890987369,52329.81867932328,52559.53925625984,52564.467402669776,51978.071974668215,52223.11820989917,52412.17588896184,52328.08298238274,52351.025141531056,51884.36054004685,52025.717077074594,51979.22894046258,51700.218683383246,51589.092248321445,51577.27583410613,51866.12255421875,51719.06910279841,52016.00958938972,52043.72017402257,52025.74582005917,52270.62058111176,51873.11307761991,52556.726802985024,52370.31770693867,51756.74447906598,52382.22257566793,51620.02253510901,51449.122543032514,51893.045877491786,51268.6223996549,51430.07559218028,52020.79116279414,52346.39968601103,52509.12846822315,52725.69556456545,52797.09567012859,52583.14871325652,52823.7525728725,52880.73119304822,52814.69592467586,53052.49965129514,52854.298353414335,52649.28007660689,52550.55958501501,52240.94386970285,52274.94701337189,52241.25574598707,52119.54475789157,52188.46485054916,51899.97370137494,51871.34797560527,52257.42535419749,52640.07526683066,52657.299071496825,52236.71318888095,52292.77226750131,52375.54598506027,52259.04979180391,52033.913759315794,51755.443754071806,51742.595769309046,51551.915175119975,51688.53809163391,51668.54307783512,51680.6485652273,51598.14993348158,51214.2952084005,52088.077147667165,51488.32294937854,51220.00698322176,27263.00000000002,27248.182327432005,27207.16142220846,27221.138090407443,27208.419976908397,27220.359351058087,27224.720832227933,27208.59926278766,27206.533107464464,27207.064896361266,27206.71409275228,27196.550775969885,27215.85478859656,27215.30874491744,27211.08018236843,27229.52605005092,27221.59670651016,27215.118149234742,27207.22907349879,27212.60161066075,27201.23596842367,27169.811086409623,27181.64297210891,27191.217545015275,27191.7441030422,27224.172377088515,27242.808238478443,27173.89111997941,27086.391488172118,27104.89918662253,27210.781115523198,27247.9450025695,27198.789832309296,27235.46874426144,27269.445004748195,27235.882934023997,27227.987390590613,27212.3052335638,27222.569745759363,27230.52285899436,27277.47632157008,27334.230716858227,27276.629424456423,27256.680260814926,27228.68687511841,27219.74761560036,27299.393490633654,27293.53013687349,27324.47943221062,27351.80398905493,27288.481443126468,27272.158131893226,27239.84130219359,27231.31298852816,27258.386800868466,27284.00169327333,27350.407775711155,27351.044759677843,27318.90779477252,27329.360487990856,27342.45426874725,27352.362819385213,27345.439148814712,27345.146504838845,27337.067977066697,27316.236177185863,27299.01306169707,27263.80615330871,27272.424102184672,27314.277486825427,27327.27273449834,27320.06328671693,27322.90051664902,27372.180446484275,27410.767616631125,27405.32335009271,27361.99667652217,27316.909122204383,27341.105144866186,27356.14177442882,27359.717442651978,27389.47341929356,27378.630559058147,27356.124072051,27335.494164035565,27333.677341465343,27375.624238513265,27403.35533862109,27398.108357824283,27386.232709176216,27388.16898107644,27378.002760880805,27355.555091713653,27356.33548770619,27366.97437107292,27369.91238679209,27364.936470624438,27351.818136391117,27331.463034996606,27332.263858779326,27344.66408974712,27358.63157264978,27376.49988309598,27356.837079557503,27346.008765606955,27348.76381915761,27345.043598945165,27360.0474311576,27347.280075887385,27342.2432706238,27349.24337376719,27346.46292616671,27344.32226354313,27292.712869186213,27276.522678221663,27311.518250303096,27308.565436801626,27287.55933379101,27270.87745074919,27281.917833115,27272.11748869712,27258.95934717968,27304.63432586594,27302.051781125203,27269.514091322497,27271.9825246918,27278.44334257007,27301.86363733124,27311.43368233585,27299.913748485,27292.56603764193,27346.84441795827,27403.46962034401,27337.422773001163,27323.53870220067,27340.444923137733,27295.89600257785,27315.77846519158,27268.61008109136,27234.977429246,27305.61912289777,27280.19634556037,27218.433258425797,27208.27970285261,27237.58867464599,27252.268091167087,27275.596482624493,27292.72627470275,27264.120951651243,27316.576575601088,27334.77229095069,27385.73726046564,27426.96593992216,27323.474338549106,27405.30767240596,27344.352243382247,27134.921098089293,27258.376301647342,27287.22120609025,27183.66648130343,27266.878446508494,27379.902432140465,27415.776099300787,27445.96613527387,27486.7307211258,27473.24559216844,27483.958222480927,27475.32363844132,27442.55298006581,27483.651148149173,27510.401942126635,27501.959967763007,27445.949675599764,27407.039806004406,27404.791293294995,27408.67097720349,27419.588974731687,27374.053493649168,27371.03148543184,27346.548160394057,27336.530127515267,27434.12463772456,27448.368112256518,27408.32367404346,27367.230329022343,27400.48831663635,27445.645903668446,27399.26226341513,27370.1514240964,27287.560104672317,27273.11859808873,27284.8648275328,27238.84946197428,27305.23219359697,27289.67981049052,27243.852603464624,27283.764740559203,27269.051699963933,27225.870816140865,27214.39003366584
53962.0,53953.06201974323,53951.450421260066,53951.27597890988,53956.97284930735,53975.30794973314,53971.44444984976,53967.31217329334,53969.6977214942,53965.525193860725,53972.13398505184,53976.486115655855,53975.6467645929,53966.91625811358,53964.270143701586,53968.14276141732,53963.79981025563,53967.89955813624,53964.74157353953,53958.99951719232,53959.52164827376,53957.892912232244,53960.277068387586,53955.84986075819,53960.11578294335,53970.0,53969.91682906503,53971.06340100973,53964.7542148633,53956.60434360961,53961.36969714682,53973.43470470733,53973.91764374478,53970.83650358815,53979.03153275152,53980.47780223848,53982.30616618972,53984.90308020537,53984.61532138548,53987.439882394334,53970.36765077946,53955.33438238986,53963.69640375087,53968.00467278878,53967.96185400651,53967.99117210893,53971.54029320916,53980.26262881766,53968.60211344407,53951.26280280403,53953.0,53952.82318883022,53961.961581237774,53974.7670171881,53960.93109042494,53951.54416660901,53951.92923700526,53951.54641672301,53953.48116686447,53948.86999092284,53959.701014993785,53971.320445178746,53970.01491682719,53970.54205579812,53958.40996403148,53953.31750647538,53954.40707397275,53948.56784571791,53950.34763560686,53949.96372506444,53956.637191758164,53961.15233890976,53957.629031938806,53963.25228675457,53959.55970539468,53961.0,53978.3369843073,53984.13057349709,53971.988694172454,53961.34721722834,53965.226719526436,53963.78702234546,53965.68223337879,53970.45197546143,53955.27883103171,53948.08381916234,53948.434396390134,53949.941891131515,53968.365779845044,53973.1044778622,53961.999782933315,53960.078226472106,53959.72567562205,53959.92350594989,53952.580640315704,53948.46702208096,53970.86028577928,53981.36683760534,53979.042928256735,53976.95060578122,53954.00000000001,53951.20582880185,53962.46753978766,53960.15157403904,53963.987522956944,53960.29384882143,53958.124435747566,53958.62092879543,53954.77558405676,53955.98835592048,53953.69957385507,53956.46511720745,53958.97459473181,53958.914167894975,53958.05267340773,53955.771488739105,53958.282997093615,53955.773447549866,53955.11831502329,53954.97053931999,53960.089835179664,53963.69601266833,53961.358697405645,53958.158234790026,53928.162954621206,53934.0,53973.612147245854,53977.39198502846,53979.176931557115,53971.35157764153,53965.59776193185,53964.35680488577,53944.735000341505,53942.51759170358,53940.826620639404,53953.08560116676,53979.11284695102,53972.28055458223,53957.65976973607,53956.060270752416,53958.73679467161,53951.70636491646,53941.80364274999,53945.2931533203,53956.56313897437,53958.46594982121,53954.494597696306,53961.7217607373,53959.968495910885,53964.65685584132,53979.00000000002,53978.94839352975,53980.691005737695,53970.69575677096,53961.071844206075,53963.301103019825,53960.88996781178,53960.8951807764,53961.07813992088,53959.16923155575,53951.47240809585,53959.72979454702,53973.47780186449,53972.885960999665,53974.67940956517,53963.591162117984,53958.91036576698,53955.956784420676,53942.82171935336,53943.83365061949,53944.261245432965,53943.113225778,53937.58628673379,53948.639251743196,53967.8440199504,53966.0,53966.74658091004,53956.100240501626,53951.72168621261,53946.9019440283,53929.35530367959,53932.20828661567,53931.33284942841,53952.048872335035,53971.64126424655,53952.69028959346,53950.589633186,53948.05362892657,53947.30782009269,53974.805179512034,53987.54071156039,53973.20140834498,53966.89986462866,53966.12739220239,53956.30722552532,53955.75232212465,53954.59833346082,53965.35050761464,53985.32182546149,53976.73086863287,100.0,125.0,30,0,154.0,43,18.13121942992073,102,68,54755.00000000003,54768.96758233898,54754.084951623605,54779.76032608069,54772.96035372566,54785.15324312605,54785.42378192459,54802.86412231751,54813.76748948547,54842.08575103475,54867.38978595813,54865.507161721885,54892.27617931383,54893.55465513969,54911.00440712189,54939.43794126409,54919.007818249775,54930.91483927192,54950.89070535604,54945.47861761448,54957.0,54973.65538271479,54976.28050873464,54990.984014743226,55021.60025082678,55020.50498982884,55036.0254977637,55050.60221484746,55006.19535034732,55031.238331554894,55080.57321587487,55077.12600159451,55105.37458975856,55101.76775759373,55109.99686917886,55136.51286699581,55113.0085826225,55149.861245037726,55090.45279156332,54989.67764954581,55090.00000000001,55127.640149238105,55110.51352975987,55159.63768396233,55087.47004080376,55043.52159889581,55129.731464691926,55147.62057049834,55139.96402465009,55173.52727293912,55099.12257762049,55057.95946244239,55152.95181633128,55144.00968034511,55142.62309981387,55165.18905741179,55081.08948005235,55093.11108795021,55137.51573649698,55159.20965605313,55158.00000000001,55043.44579095771,55046.4376109231,55125.23078909623,55126.22309859996,55165.81585553269,55153.91148197783,55065.547906181215,55064.73606238225,55125.97680857578,55149.84794546239,55177.31446064961,55162.62151701311,55079.57327446245,55097.038224281045,55161.27170879593,55173.963889906976,55192.211316041954,55178.291557933226,55151.16194036449,55167.99999999999,55191.40079671783,55206.07692734502,55217.48192724352,55200.23604292449,55197.483175775895,55210.383788659165,55217.538228032914,55233.23823038591,55144.94122223917,55114.11997460371,55212.71850086536,55206.77937389831,55237.11400657474,55253.77709895978,55183.768303408615,55204.469838964375,55213.20364577527,55249.85636517213,55238.15031625055,55134.0,55188.46230411632,55240.108906397945,55236.63971130515,55254.86365785276,55200.74597758724,55224.62917031587,55243.38524490564,55227.91161813907,55292.20163411356,55122.89084373099,54997.552567951,55170.90394425794,55164.2808665653,55193.27471616671,55277.974556540925,55091.04302188077,55082.41023261892,55214.73312115389,55214.53903586696,55221.99999999999,55126.17119622259,55101.18667811204,55194.33773496062,55147.11389897395,55246.99966336074,55185.47654675924,54761.48165762811,54869.72809892696,55122.776167463,55063.37732881383,55241.82942721517,55103.32850126606,54795.49687388186,55037.72215615623,55170.164010525805,55145.412638955575,55193.773989711415,55052.38970750419,55083.00621552765,55149.0,55150.72576969746,55267.827094371234,54880.1803813052,54702.37890731129,55105.0112368375,55131.92718121284,55171.37876768775,55011.65815834452,54768.974781689,54980.01267169963,55018.769070250535,55185.00545193334,55134.93340763908,54893.170375292895,55054.65743003575,55123.02489098679,55239.14369226262,55107.42083975905,55012.04222153782,55063.99999999999,55093.30974071262,55337.8661307648,54112.92889824244,52820.784885057416,53260.27167278305,53730.449976167794,54213.77351312705,54534.54219895798,54592.72066716552,54772.313179195,54748.23911900877,54868.97424756792,54847.29090039236,54847.44063553274,54896.07628455304,54821.6807378429,54933.00324884216,54855.680085610256,54884.12351494076,54849.00000000001,54780.41348896497,54659.70384671857,53885.12829015005,53742.92705528836,54156.08534654432,54262.346465287286,54254.19563613346,54049.63463178639,54413.37243596197,54816.83972905135,54710.92569694768,54838.75002000094,54832.24846988855,54814.89249011365,54867.14406042345,54831.91222674579,55002.47252990351,54864.731520639936,54643.09388830576,31111.000000000025,31132.194629546982,31091.971336551043,31111.844690731847,31078.566093892907,31094.653564527944,31093.04182402192,31103.890627376262,31101.904465208943,31085.762619650854,31092.881280238395,31087.12463206693,31101.35155006278,31103.484773288317,31101.17216886305,31103.783527529184,31094.454649825013,31098.637847355887,31101.046514656573,31102.23246807226,31098.0,31091.47418736171,31089.274103334206,31092.88414726261,31108.74393112131,31115.71966239385,31115.83012554425,31107.833999974933,31094.109944414427,31088.701192521617,31093.01343371373,31106.50882571314,31107.404419344097,31098.732931502083,31100.51641323191,31101.030623284885,31100.54856233072,31110.390459784885,31101.11770585353,31081.13608930776,31086.0,31090.40442016293,31099.7809975048,31101.55993410897,31078.501528201006,31086.239248376165,31102.585592389543,31102.70756393451,31109.735070270886,31094.888253120283,31083.48692938592,31099.52782886169,31093.563513266603,31092.88137882565,31104.144420446675,31080.560288379787,31079.986059941493,31096.70077093259,31086.10176605844,31096.26443351248,31097.0,31074.381646280875,31080.388703023727,31085.552432432734,31076.865855332813,31085.7109072147,31080.30761618187,31052.838960106368,31060.536793504576,31074.53915087092,31068.885058199863,31079.335604191936,31070.62231713118,31050.744294905788,31063.916975511915,31069.35034675417,31058.07734024435,31058.366687865426,31053.56650358717,31042.77494154764,31043.0,31044.20913073312,31042.579901571647,31042.11490823332,31049.45972858299,31051.30303407231,31037.673662910183,31037.69066675881,31035.075678509245,31025.532683788,31036.11490250962,31042.965138456835,31041.548858650785,31033.092746013604,31019.211425267116,31031.49896994704,31045.476888893754,31035.73726120117,31035.383995854118,31027.716247324028,31011.00000000001,31025.27973111654,31038.90614616944,31039.99901377647,31024.24534788319,31004.897010670626,31022.670676169168,31029.321844018657,31026.515041174436,31012.00583810619,30979.881741207988,30981.829384366865,30986.08273464445,31014.48427359206,31027.3998917141,30973.439433346062,30973.17569647904,31003.03717501709,31000.049210673464,31006.71630550935,30996.0,30955.28947978573,30959.46490202392,30985.10440152853,30972.12715823349,30991.463736019326,30964.88041654756,30889.19448234897,30930.50023803066,30970.726911410104,30972.360545783256,30983.466468972623,30937.774161308764,30932.82691737008,30961.708897771165,30973.79276377306,30994.76979685825,30943.01043494442,30912.51013283329,30961.420864593056,30966.0,30976.901097289887,30949.14474631428,30881.09307726877,30926.12999126087,30953.513706543134,30966.817480236296,30977.843315573304,30869.12629210055,30867.361582506182,30930.243424163316,30924.00606554722,30946.58658377252,30905.279074014117,30888.6612419602,30917.863887700845,30906.897950837083,30936.26401987687,30911.211648009088,30875.374824311155,30897.0,30918.063308488763,30861.59400331826,30536.6730841428,30279.917522091106,30422.48084785729,30608.39983935304,30690.64588392067,30762.05631017775,30801.882699401795,30807.887275354165,30802.97130568671,30814.97714090728,30796.13256231707,30781.4185831972,30777.12890759823,30755.9268113931,30782.61197401164,30768.961942074504,30751.3658968182,30772.0,30723.697699010503,30654.21706823075,30580.75373066704,30530.300546875424,30507.65738919091,30560.35022737046,30619.5204638187,30573.63471360172,30726.078368428945,30849.143332725667,30769.1754349243,30814.321041611423,30766.92046871689,30744.651785977563,30805.38125973353,30786.73259946552,30850.53234676808,30755.787615797864,30799.954928256582
53913.99999999999,53918.29516093764,53907.010023236835,53924.6639985761,53912.44054931524,53929.37397287105,53964.69366047741,53963.993322604256,53967.13172751005,53945.337191993654,53925.14325961491,53931.17193329743,53923.0588126406,53923.312503126734,53925.82783764653,53918.41380497027,53914.74182424641,53918.52095246936,53929.1485862536,53928.28012993478,53926.529436774756,53934.83238320421,53939.894877486426,53934.66715138552,53924.69048203023,53926.0,53927.05627326438,53920.07690705819,53916.612002702495,53921.16051167492,53930.72580971436,53928.682025992974,53927.72005102651,53939.871168856065,53944.74556019982,53940.132141484515,53933.495896973975,53935.60769509916,53936.11503940387,53916.54118420539,53906.53120332231,53918.618363347356,53927.59629568195,53925.297066846215,53925.51248690758,53945.45893473667,53957.528730717815,53935.86821525573,53920.32401542541,53923.72953683872,53922.999999999985,53921.97593904932,53921.74173989915,53924.18971422842,53928.02426966751,53926.574007410454,53927.0531610186,53926.28155885216,53925.70717034269,53925.10487525584,53921.800813251364,53923.71533062856,53922.82728269708,53926.23006770417,53929.621183869815,53916.205247464415,53909.78790251005,53910.95223103464,53911.71276854377,53922.492191768324,53924.91336312064,53916.357816070675,53915.533539702454,53913.37997789204,53918.0857308519,53947.99999999999,53952.8624806837,53923.235416181706,53916.20232921702,53915.389686230665,53921.056558553064,53946.95045876759,53947.89388924648,53938.087002150474,53938.90487273241,53936.95105548645,53939.099656590224,53942.22008668288,53942.473922069825,53930.54929298843,53921.78031880775,53930.97541605904,53918.21591630564,53896.22376033591,53897.60872626757,53905.52366097014,53908.81996041347,53903.80696545488,53914.53866810253,53938.109694736995,53934.999999999985,53924.45732044431,53924.384326268424,53922.705989080176,53928.32240907283,53944.38969082983,53940.013807230134,53915.26514853636,53911.34103080643,53913.28986238018,53916.62841944756,53929.6804414834,53926.43144635144,53930.02785590906,53933.34829875135,53927.36920963416,53937.72068509469,53941.94675632429,53942.16592240753,53938.377442783596,53936.07050284694,53942.23184251276,53926.408775411765,53915.75491890064,53916.6357466749,53913.0,53913.47240960377,53910.669441569364,53923.8065837275,53938.96855057229,53932.285625014156,53922.699521581206,53922.08534550617,53930.82878675947,53933.76994683241,53932.988857114215,53932.22526980688,53927.68078244622,53927.78135213385,53930.284703412464,53931.86092122294,53929.661376898606,53933.36794987313,53939.299682148354,53938.935349430554,53942.43584420239,53942.75548976983,53944.52780075744,53938.21095027552,53921.82368073499,53924.0,53927.57213718784,53925.66850668167,53929.266421024804,53921.66020374811,53907.59010659373,53910.53938556465,53921.291800979656,53922.25104410962,53922.22850746383,53921.65039918109,53925.789142572714,53922.60356224088,53902.348100068455,53899.61419822099,53900.965318193914,53907.307919966406,53928.771254469895,53919.829567726985,53903.21684657147,53903.38046057552,53901.02391550812,53910.91857670697,53924.39760607062,53918.73538794374,53908.00000000001,53907.4443228958,53908.99731861061,53904.61203046808,53899.33175170062,53902.653895774354,53909.152020592475,53909.08081029777,53909.48257496795,53904.717305461796,53897.69230639444,53902.06288912817,53907.22017147361,53907.11965581618,53906.56849369675,53908.98769388869,53910.18839610601,53910.10419961222,53909.838496977565,53909.89440178423,53910.894903945,53906.80129582029,53911.76719272509,53898.7692462626,53881.628189393974,100.0,93.0,61,0,144.0,62,29.899691358024693,141,93,61920.00000000005,61786.6965458358,61759.1891696648,61941.1774309324,61670.94067357085,61621.777218330375,61654.5336496749,61783.93170761953,61851.71869615821,61724.79327779885,61729.26853562988,61886.12313348488,61897.06577234283,61703.547311178765,61692.48702655743,61748.34028464958,61744.53986466585,61766.634313539005,61750.0434046183,61802.72290990767,61827.86463866728,61643.07424120108,61562.53044222318,61746.35803780771,61735.56801531866,61663.95064472164,61689.94777950276,61575.75660000572,61584.23728712848,61558.40237090809,61449.23627920885,61592.21468498155,61590.07492316824,61318.60643724455,61412.389985189126,61634.75783772412,61589.66759972183,61775.321261117904,61793.267979388846,61693.75881844893,61908.34630083551,61754.55827389907,61588.65089617522,61604.86047572688,61405.44097216441,61178.25643097221,61196.791081487536,61475.432725726656,61454.40308583049,61440.78935756277,61535.5649406413,61508.59660584729,61579.01916660956,61338.11503954719,61381.70769959123,61709.52039198519,61556.464025746325,61504.35837401584,61634.21415342767,61712.80864884872,61714.12018381051,61603.61173902738,61581.87280111256,61740.28150273805,61750.63082741703,61514.52038326592,61616.745319180656,61724.96573827293,61596.11898707492,61603.140480470014,61564.904169337846,61602.46982204255,61599.54799411845,61404.140355681055,61378.92419393584,61542.62284369234,61511.49048906644,61304.82675080528,61374.17740874764,61476.57075459304,61396.391295488495,61299.84316422883,61273.08553456376,61389.238180404456,61399.17944687547,61288.265385849765,61326.226096147846,61540.72947900231,61462.70437596288,61228.45861112334,61376.0366681308,61412.59496215973,61317.21274651353,61285.383755610914,61260.15028802548,61367.38770426257,61229.72559522365,61009.40490051248,61037.94717351915,61099.26350498903,61048.69024663674,60982.29483022142,60987.06469857708,60991.50374395441,61049.28660243956,60945.17159455962,60912.68922005631,61102.238521180334,60946.28062014122,60798.45959993379,60939.46006202466,60996.43052271305,60905.13033513,60836.33142690592,60881.17590624147,60970.580874991545,61009.37363937593,60846.37546956661,60884.05827291273,61067.26347285665,60911.21291297262,60849.9930402236,60912.93538317524,60976.93391131156,61054.647345017576,60901.12324767563,60856.09992557616,61044.64453568456,61014.47247131867,60827.45253945077,60881.62782033953,60973.62801064154,60944.80717662623,60848.056640527575,60731.2761014021,60902.12214904146,60954.89904416078,60751.30812557054,60800.62004339409,60910.7650567336,60928.70379435933,60878.22879797459,60780.340439947046,60874.64478740536,60990.06428594236,60817.765261672364,60734.676798754575,60875.07322148164,60920.7773153226,60959.701998651086,60861.27446215083,60838.30198623692,61028.16300466441,60924.20832286425,60837.74506238096,60940.298861016985,61013.05147609546,61052.40827689446,60943.78378334336,60887.66368911597,61009.92972565173,61004.19407758044,60811.58116459716,60863.86758208252,61007.33577872935,60989.14915116894,60976.37601739031,60881.30383627245,60979.22641188299,61071.82833928213,60894.069367183096,60906.26124004925,61032.298917401815,61033.29990678484,60907.557398859,60877.97140922762,60985.0191666569,61056.83969656097,60948.33176245952,60782.59978267174,60979.49189632279,61046.71622352948,60924.0050195785,60940.20422734267,60956.67084314295,61122.29114177955,61055.28469344996,60903.93644505842,61001.33711596531,61066.45914772619,60978.225894084,60852.7152975289,61003.80921488461,61051.4229855228,61050.82185484186,60940.11625567029,60835.00640851374,61174.30071960359,60879.766867046914,61023.48801548211,45001.00000000002,45042.82306135901,45110.3019872621,45062.75325685634,44917.72114935683,44975.8579685282,45027.46762088625,45094.00730621323,45100.62638079897,45093.67035318837,45143.22334734609,45145.2186431786,45131.16029045444,45040.23067580099,45069.97256909982,45132.1839292352,45092.39117176539,45155.08417937615,45159.99343584648,45156.53941874402,45167.46229763381,45083.45425992297,45098.79938857093,45143.98254025199,45160.15739889137,45158.24198275398,45089.90945637622,45077.993704821085,45063.52176765965,45041.72262799358,45079.51768627307,45065.44739436555,45027.300757229634,45003.07862831844,45091.69151324272,45179.5802373734,45136.0204518186,45290.28231288343,45327.74204145972,45151.67272817728,45232.16920816129,45192.2589510912,45047.472894266655,45074.1500157511,45002.160260862736,44891.643378905545,44944.09574975789,45055.63734124148,45001.38861913741,45031.71967484168,45147.90722774657,45076.37762333283,45066.40525650512,45047.25590618631,45083.38346219741,45181.04351936296,45080.91277123258,45107.35720479141,45194.11382747949,45155.506992062416,45112.27802020909,45112.86202520718,45198.59056967705,45190.84323622026,45147.93396494031,45141.01812534033,45129.59467634402,45165.692509197615,45135.49840886964,45124.85928276813,45154.14912286055,45108.34004855567,45074.04312470894,45066.47431534399,45080.62159186215,45115.551179430375,45081.81282716386,45023.5288377018,45062.12049814472,45090.5396749511,45032.535368270845,44995.12301351533,45009.99514761461,45012.78329354454,44984.12541395296,45030.19710194223,45109.11178924819,45119.78742484029,45060.5853211486,44995.06229440401,45044.27839472288,45055.71936734424,44988.50682345956,44986.930494443775,45006.09017762187,44968.21365151604,44869.312929014726,44849.71847614333,44813.26552655696,44783.80756994692,44848.91145502649,44725.67343313111,44694.82850343194,44815.25264328996,44732.094978942965,44723.4238814047,44795.39356501922,44763.11627548344,44721.47406145991,44694.00772436692,44723.44165582443,44730.319200899045,44673.26372595751,44678.82908930731,44727.15775143322,44724.75373039564,44694.56939880474,44701.963497835066,44735.098374109766,44741.65664517643,44710.95684364128,44676.44093659925,44699.54304848604,44740.923878930735,44706.97247083364,44693.8933163145,44725.13778061956,44731.13611668615,44728.48558444044,44684.796576240136,44709.84291491786,44742.56912442445,44639.61052352226,44613.74828929018,44664.414459373176,44688.84511705289,44690.1778346228,44644.99811225879,44663.75796400312,44706.68664720272,44672.21384181548,44648.88428333206,44678.6276059317,44690.67805699978,44678.400090921525,44650.37388307294,44630.73732696766,44691.23101410778,44695.03526170059,44640.45729987958,44678.30018241351,44713.7969708441,44731.03443253871,44723.08581290175,44689.91645368605,44733.24955045145,44753.739813100015,44718.99790355768,44718.76874861903,44709.76580395066,44707.3633584954,44720.51045183045,44688.173431175295,44703.03990631892,44736.26390981944,44690.31288287435,44687.72529357291,44724.30573511369,44731.06709927326,44723.340088566256,44704.6323375476,44716.48150901889,44749.0537352572,44730.594872720205,44680.307616470775,44716.21142026104,44746.03451847991,44694.49414946833,44684.64182467775,44696.84891308424,44726.25477190329,44731.1957596142,44695.65300205964,44720.69747009847,44765.64179938335,44763.835496907406,44718.41035659224,44713.39190372901,44735.53764800743,44748.6842716012,44723.35774742633,44687.38517903597,44752.51771728738,44723.39611865595,44683.44266942942,44709.86659869652,44697.65159787812,44764.138740092734,44684.51494336456,44734.47769363579
54007.00000000002,54009.48787396046,54004.70843531279,54010.81100906322,54005.953268902646,54009.12700788396,54007.789116141605,54007.444364542665,54009.05103257857,54006.81983812395,54008.844012970665,54008.304012394714,54018.17799815835,54018.406077120926,54001.53277906851,53998.59120478577,53998.08956394857,54001.90290490494,54014.37715820483,54013.437203491994,54004.08825057424,54002.91327607331,54001.68822037161,54008.79689488632,54036.85928765828,54032.0,53996.86248562874,53990.95400056911,53993.679799373545,53993.64495029453,53994.65885703348,53995.37178686531,54010.08280978186,54014.186667762304,54009.60894010692,54016.09081243687,54023.65293257826,54020.97034091532,54005.192676360784,54002.328830263716,54005.34942606388,54004.91816458609,54015.30896380553,54009.98909870587,53999.142593646895,53999.19036824762,53998.34443390232,53999.05774677898,53991.90757521813,53998.18020696392,54015.00000000001,54015.17486311146,54016.435567655506,54005.49039600004,53989.57370057676,53996.71685599805,54000.92160345363,54000.53202690786,54002.53349090445,53995.07507884137,53989.5786729393,53992.193268970484,53996.27484422167,53996.21357599039,53995.31881675579,53997.64079595176,53995.45849367107,54000.10641553725,54009.75162831951,54009.081304622836,54009.27719643934,54004.26266375057,53999.7716200346,54000.204075703725,53991.48079710859,53993.00000000001,53993.9758248569,53992.73801495569,54000.02759410014,53989.25389385438,53980.56667397704,53980.89415201434,53980.09872726285,53990.82284324319,53995.515541430614,53992.957670215845,53993.17519353612,53992.910797203265,53992.7255008676,54000.59305320533,54007.85167319789,53996.184550347534,53988.05192098898,53989.06707345331,53988.98001247004,53987.96255237365,53985.168045942395,53991.47297235244,53993.69163186104,53994.7177814974,53994.0,53981.506601418536,53979.61001881949,53977.7775785187,53974.53246921047,53974.60103045092,53975.38905669936,53991.67561576449,53997.382277763965,53985.40391894268,53979.674450538616,53981.896127153654,53980.37243419685,53971.56839259679,53970.49597959563,53969.91829433491,53967.02522856653,53968.49124437811,53967.85334472046,53967.98061088769,53967.84401773533,53970.30934196233,53972.86061770207,53971.510985098415,53972.20716527137,53971.99999999999,53971.857597987655,53972.671358578846,53973.40741346269,53972.2321693079,53974.559182806115,53985.459900196234,53986.25060871818,53976.13320161788,53973.15373356978,53974.43362804213,53973.72496181732,53972.90406137341,53972.73380143906,53979.45235958197,53984.36443952836,53979.19659280982,53986.40489058561,53999.06855485539,53998.2925498001,53990.0261998102,53985.67834918189,53991.3444055801,53981.823942960495,53969.09091725111,53969.99999999999,53960.8272287626,53957.59210891821,53959.60964292355,53960.24231869344,53967.35009015522,53965.797742753515,53965.49398370052,53967.069605931145,53964.14524115659,53971.003599391704,53983.96853366031,53979.50173816079,53961.12235924607,53958.771471151515,53960.581791742414,53961.720495415815,53968.75921008523,53966.390305893634,53966.82754592495,53967.704999851536,53966.09353557284,53967.13998525339,53961.984930031766,53965.64233371822,53972.00000000001,53971.75067235902,53973.14320910297,53967.320888859904,53961.650407778434,53963.79564438049,53966.05158366398,53966.08744698408,53965.888158346715,53965.19693892774,53961.08664958391,53965.85530047331,53976.60907765328,53976.27170913566,53975.76541926213,53974.24749946019,53971.08400200126,53971.417594285034,53962.71049514602,53963.61482139233,53966.066923215716,53957.967114864616,53962.19232372137,53954.315169676236,53965.21467789782,98.0,71.0,45,1,172.0,103,34.81611681990265,139,96,59870.00000000004,59800.34544161864,59884.68807187686,59866.95154384444,59968.04064089579,59974.6451908697,59951.86938416648,59907.08795578805,59934.18597667045,59977.52065845868,59955.65445618684,60003.17458651239,59965.2010008524,59917.78142648719,59954.51551343432,59964.2814437448,59971.91184563518,60001.25958326579,59974.93869287783,59903.98745296407,59942.18938600482,59964.40101250692,59946.32633551206,59988.11099790449,59944.19411192614,59900.13869417032,59961.30665187024,60012.60386900641,60033.33844792043,60075.21778063395,60033.96230626069,59950.71797514819,60013.3359293882,60046.889330773,60053.30932341264,60119.85347518475,60051.06932706368,59987.27078273466,60052.425823189486,60082.76169029349,60107.58803784508,60146.966764992256,60071.929736523794,60031.34417300984,60113.07716974964,60122.52103512951,60151.87802285927,60204.542662066015,60141.44903257992,60110.38805439994,60146.05640459841,60170.19354333137,60198.93715815382,60248.114686697016,60248.51437339892,60170.70767320612,60144.31757281092,60186.7068183075,60218.34039080027,60256.4040908147,60265.53418169491,60196.48548284556,60186.31293559369,60249.00448894192,60267.06383011529,60298.82849704224,60294.68219101721,60227.91912374588,60231.41722384681,60267.543618470605,60272.63214104228,60297.76440881781,60313.60548517807,60244.44128447956,60225.05410975773,60278.29767613656,60274.11765962692,60310.91284953665,60330.069313198845,60240.92672676463,60203.42302598244,60223.29544260765,60229.9598662419,60266.93560895972,60281.92967116428,60210.81498960358,60205.76398786,60263.04877455303,60279.07137845713,60338.65837504059,60331.095628089046,60229.85269354592,60242.98396020818,60303.26716740744,60315.52106432683,60364.07623011874,60358.10073984983,60256.8106242238,60271.9479590503,60344.26075971472,60352.26636844091,60399.46244446693,60409.05758501389,60342.78406668071,60339.46831815158,60371.658288778126,60366.8785327301,60396.75394437657,60397.12030712696,60332.238183499234,60366.851973130106,60402.35289825586,60409.2359972558,60469.65512084664,60423.38435960939,60341.50413537528,60348.656876452194,60377.241692460906,60427.51917666269,60473.97458733986,60422.38194700537,60335.827561148864,60352.10593738037,60382.30721564118,60406.118197050295,60456.369918407065,60413.49955655853,60352.6979547915,60375.777597123786,60403.06875245894,60417.63810593272,60448.044684044005,60415.16565736649,60364.74350052643,60408.53029575018,60433.87892740481,60445.28388411095,60483.132690334976,60459.88960031948,60417.38978464113,60417.45460520858,60446.80025528406,60467.67353808784,60521.38338770438,60556.31164673429,60479.065907584096,60441.05000888394,60479.54708191888,60492.389846637976,60517.93137599171,60544.28105526237,60478.21766210348,60443.34474780494,60503.55920381087,60505.27632010103,60520.80449457509,60522.23348055417,60441.93127574142,60457.46959329958,60513.53908606771,60530.71252298109,60569.094957126006,60569.889520281926,60498.77804329949,60496.70586173749,60559.052404646325,60554.41293483491,60588.08361981113,60598.028684331926,60509.14305585718,60500.908619927046,60545.85098466722,60575.868240812255,60614.87911209805,60588.08711794091,60490.117473195336,60491.30212037419,60543.65046447096,60566.004547397664,60631.8726738357,60584.30560508115,60515.2243355895,60569.03933481473,60597.83443373169,60614.15311762481,60639.33265262493,60605.99209445036,60507.82126607254,60532.0647613223,60578.56521487112,60550.88820342507,60629.80636856658,60580.859679429785,60527.16076435974,60580.727359143086,60585.783915117856,60630.89442040712,60610.373552472665,60683.493785429775,60457.16453316489,38680.00000000003,38685.71362500789,38695.18220862815,38684.66987079717,38712.26360366391,38705.831719842274,38695.02064765084,38698.80721056911,38697.08661053084,38689.75879106591,38703.00235174649,38715.02850052409,38686.14091387703,38682.76878649555,38687.56265737525,38685.73386628798,38701.664545496336,38689.76808887554,38669.3319820775,38662.962718317525,38671.22761633606,38682.00201911799,38678.642371365626,38667.75573147184,38647.61334900371,38663.21051791144,38694.52634668867,38694.5508277745,38695.87947104153,38686.68456366252,38672.39557600284,38679.57785575872,38685.0029076271,38683.92348483171,38686.612847771554,38689.64912734881,38687.99583913104,38692.652926930336,38700.54863086038,38703.57970444148,38717.29331868933,38715.29742291868,38687.49702456638,38684.12643123433,38700.06980981491,38712.43995669397,38730.00458973094,38729.086200485486,38701.56946000794,38695.91643173206,38724.02736539476,38739.61599403036,38746.997244615406,38757.20498117557,38735.7262307807,38719.80722527599,38736.06976064893,38741.83988020821,38744.08660762313,38750.103608096855,38745.96242232332,38747.86569194793,38756.15232221401,38755.40668966487,38762.3697500674,38773.20325556534,38759.12080885814,38747.9178270926,38750.0791771679,38749.6143472906,38763.046296871886,38768.05864260088,38750.96721014351,38742.36447460441,38746.61154033471,38757.541934832894,38767.45985218396,38759.6116926284,38734.78646926736,38716.401840175575,38724.56155225612,38737.91168438346,38727.43991513122,38717.59091513077,38718.03723663134,38716.872979445216,38727.48968016558,38734.80126675088,38736.151686474026,38738.753480454914,38730.42909209178,38726.70280207,38730.95280953172,38739.497234298135,38750.5514756934,38761.27641981919,38757.535426570736,38732.68224517488,38737.72460362312,38756.15871321709,38767.20353045606,38796.56141536998,38786.81834210319,38756.50271173218,38763.32865354066,38766.844726696014,38769.81760413322,38781.32116130304,38768.47718253508,38755.04629248252,38773.42803387394,38792.7046666223,38792.38050751321,38785.2844947522,38767.87339840145,38754.44783525211,38772.69318891116,38795.03965992066,38791.27282296161,38782.92121950599,38768.63212508328,38757.44550776705,38767.95285355275,38762.00977180048,38762.860958933416,38785.69288677812,38776.00275829668,38763.71026381957,38767.99720012485,38756.929734719735,38760.93683297452,38782.02446903016,38768.67416895475,38751.32978629502,38767.52469727925,38776.23018551462,38787.884403311065,38801.87684109386,38773.9073184978,38756.92255126915,38776.62223876975,38784.40198859263,38795.75622898975,38809.48034686605,38788.40584780304,38775.18075475102,38789.71716183383,38788.887528186046,38784.189219192805,38791.35791704515,38791.62199832611,38787.03585602426,38787.44705457572,38782.468522348325,38782.35058464545,38794.86136155225,38783.7449479759,38768.50456276335,38772.45318965554,38781.11529679281,38806.50446273612,38813.27271786836,38790.506227325495,38782.14247408648,38792.194293353714,38807.9982353855,38819.95273235576,38817.00808703561,38789.36565254279,38780.25249953917,38807.10272777495,38818.3794665594,38820.00368436423,38811.86007954612,38785.2598594217,38785.15335188855,38802.88985688048,38799.67017944542,38801.58400054135,38807.50229012087,38796.15958971658,38808.493413654665,38819.4640996229,38808.814605846834,38815.9847257384,38811.96045263927,38789.38237340021,38772.84287923179,38774.302193970405,38784.57195051285,38796.90589630893,38803.59749251009,38781.293654436966,38783.91618296389,38796.83112914315,38806.21486585102,38822.492874512616,38788.75915939305,38788.62813416894,38766.40153111242
54017.0,54014.78488044075,54018.68249205976,54018.382886456384,54024.5814524626,54022.91216662785,54022.59840607419,53999.089860212975,53987.74625600468,54017.00110463518,54033.926095518975,54027.875016052945,54031.20169016368,54046.95234325296,54049.38920072378,54046.34848194406,54047.40356884344,54047.21864537958,54046.044567936566,54029.83862977313,54025.55015401346,54041.77392613351,54044.91401200047,54046.1143976568,54043.328124055726,54032.0,54031.010889944795,54037.97372012329,54043.49011587073,54037.85939418043,54045.743724695814,54070.81383610855,54071.30533277572,54067.96371529002,54072.31724294803,54067.57908633545,54072.81771700683,54080.2898271151,54080.143624542674,54077.28706597794,54074.48753942276,54078.204976041096,54071.62239725611,54053.942387787654,54055.199679708,54077.642157506154,54085.48480904634,54078.172273342316,54088.79044031736,54108.90227529949,54106.0,54082.218524787364,54076.793992129176,54079.68573706291,54082.97890500899,54106.02702886278,54099.79342625296,54077.99892298933,54077.36538649583,54075.347142721956,54080.329231886964,54081.21711895511,54082.64986339607,54088.87205428264,54088.62514619204,54089.67676724908,54090.284340517304,54103.77165963815,54095.439165724005,54071.49669878426,54070.822043723776,54069.824237477034,54073.72729164781,54066.82332303168,54076.485563373826,54111.0,54112.381036984494,54110.59971628711,54107.59803872318,54104.182896916114,54101.43821910811,54084.46317269636,54084.54288044223,54083.80076904346,54097.608208175545,54116.565414023404,54107.96869061564,54108.46989601996,54108.34435537862,54107.686294367704,54104.810173934166,54099.66624660104,54099.57851885833,54085.063507587074,54086.49283439802,54089.523234907334,54076.993506293664,54069.9664972896,54081.63466971024,54119.15692948881,54113.0,54080.975189424025,54079.99913922976,54074.8641963191,54090.25690820664,54116.789550737136,54112.41876411979,54103.57760353936,54102.10693622381,54105.105590205276,54096.164178025734,54079.818741145704,54084.05068642073,54091.79394274307,54092.09068648899,54091.52263741411,54095.85894367813,54110.44486604028,54102.747440977604,54077.711721862725,54075.686916912266,54077.68283826159,54079.62920842961,54090.472571905455,54084.46988583874,54075.0,54075.54246570646,54072.07330727542,54090.69239208495,54118.385744035746,54103.378906861966,54084.77096331052,54085.30611509964,54083.0243825778,54093.05017317785,54096.67049432849,54099.38702974354,54108.28245714091,54107.67117158257,54111.36027418523,54084.96621538542,54060.83848664904,54071.82486906092,54067.794446311724,54068.68033088247,54069.904234716196,54072.25075869407,54082.15854550738,54074.91021634738,54079.68546309705,54077.99999999999,54076.39816919622,54077.77778863421,54062.17821069765,54087.28646327691,54113.375923528896,54110.93887278487,54111.50599458791,54107.56156938303,54113.73947310634,54094.8928095213,54067.77194719279,54072.770730324155,54072.4749035189,54069.52578296892,54067.286885480986,54075.8985485796,54088.15470962724,54085.69392557682,54086.19266576122,54072.88444048222,54065.73738269678,54071.6644101779,54067.13213884105,54069.94689126348,54068.999999999985,54066.66635690065,54067.46543760507,54068.49114216728,54075.5650455124,54071.16389702876,54073.69874138156,54095.977800121895,54104.474337071115,54079.49157769428,54061.805243421186,54067.34350131416,54066.3196655281,54086.429039569135,54095.1092531174,54072.13247580416,54070.94682783459,54065.82097208058,54072.20304904196,54100.08094229076,54104.03796502458,54084.608407702355,54066.808682676005,54081.298673762394,54065.83463502524,98.0,166.0,23,1,172.0,88,29.745808545159548,112,75,61487.00000000006,61629.954265788336,61622.37829070183,61786.89900232069,61579.677524518,61549.98188775241,61538.92010088674,61501.21928600587,61588.74484886262,61488.21718683082,61463.09016149166,61523.700090645885,61478.38087827207,61251.25563863973,60972.59747826908,61175.80827178714,61470.6102393476,61366.91132209264,61158.21661055213,60957.71035233952,60806.99999999999,60824.66783203338,60933.62854953856,60865.41633361612,60796.2506575598,60915.73192576991,60935.99368212976,60920.52359242755,60906.365246532914,60872.242575080505,60885.78879081838,60888.82477146991,60944.64487684953,60896.90190134183,60816.14493833631,60893.16582440255,60910.44374245536,60899.22752724528,60903.55663330978,60812.25483779538,60811.0,60866.525691374576,60809.522659110095,60817.610187779566,60826.92308148599,60900.12153859765,61001.57463859067,60806.24827248216,60772.79466588669,60892.892046469904,60843.601723506414,60792.57083068645,60734.78751270121,60801.88816565178,60774.52428642644,60698.2957690111,60711.663365871165,60638.65718736836,60684.75639852276,60635.873473738575,60574.99999999999,60601.65218919707,60594.73139376435,60637.024828143534,60497.58146093687,60439.86692985856,60470.183125812255,60538.016112503086,60597.12680880448,60425.586401179695,60451.99206982359,60474.21600065589,60498.20614752708,60550.57657642087,60416.13468219893,60466.85455332449,60485.69010056266,60530.94199766266,60513.6506899849,60361.3882081931,60426.0,60447.07831841108,60495.30130134348,60437.10819119308,60350.29206435941,60442.49066327848,60438.53097537025,60442.23873466561,60360.95131430865,60367.925422855726,60460.88230766449,60454.49737645172,60455.36099626344,60369.64963281024,60421.246022785446,60443.98907176562,60399.99653001994,60403.0083262208,60340.35111566592,60433.36598675857,60444.99999999999,60400.38982863157,60368.0574100159,60343.86478560983,60484.115891870846,60415.5402530826,60329.85839352216,60361.8062230688,60378.85241412588,60460.38635706115,60401.50988957146,60368.19950607721,60400.05616431529,60403.84107331481,60434.1465245119,60358.92923740995,60369.37944676584,60464.16864936378,60422.63105217554,60374.72316941322,60341.0,60375.68038660608,60426.41113162244,60292.53480099839,60393.55189263418,60714.53719144154,60905.06437393953,61044.60101968559,60830.40973423238,60643.20872456916,60748.2242072293,60727.443369689085,60768.36590026351,60580.22680345128,60374.49355204287,60516.03492616279,60481.879311735145,60478.45626978736,60555.44462882378,60588.48351966834,60571.99999999999,60370.906557294606,60369.08269655248,60520.28538370837,60578.08475799661,60547.450332723645,60511.76895056281,60621.42165422688,60655.03565875829,60624.76963218565,60606.18361717316,60547.76369960835,60619.63531387614,60692.77241425312,60694.72200476767,60790.88365486917,60896.44617793247,60910.84564821692,60855.2137534295,60782.87977818628,60790.0,60847.00982858716,60876.63537391039,60829.0365963848,60645.15718718183,60505.810768225885,60487.16787128801,60421.02430317907,60425.12379131641,60504.43748312919,60400.36917721184,60334.24728131855,60471.64307586775,60481.346987137935,60394.70224978531,60336.09626714926,60350.75314164806,60469.166151087,60401.23788027087,60329.04641244718,60408.99999999999,60468.63438066277,60517.29662914238,60403.1346792173,60345.792352807184,60419.09122173554,60437.364217591145,60442.39464448269,60339.8783899539,60362.99777506307,60426.99017531232,60437.99685158939,60472.94333484632,60318.83822829891,60400.6176596207,60480.50250067851,60410.35324196853,60524.82716382244,60259.38223951256,60521.37604475451,45925.00000000004,46011.767681163175,45986.075301624725,46024.73510213062,45923.63938444007,45937.959653064376,45901.52213142171,45884.88050602783,45885.13712006301,45832.6497273081,45873.40754386578,45807.77839900689,45721.628324406585,45649.26651997358,45609.92787145913,45731.61406492946,45708.91042189184,45584.51300518265,45515.5712634949,45431.55140673363,45393.99999999999,45390.55013281171,45406.89186959928,45411.69889552782,45415.25712495727,45429.81833327277,45424.96631037529,45433.8360199292,45420.83460386931,45422.37217900725,45447.96180841647,45455.664309304346,45440.13074668583,45395.27133005838,45409.63160853776,45445.87308937359,45455.2896853691,45443.22243250659,45399.865839347,45395.20420117981,45409.0,45424.66942472109,45411.81513151085,45392.573254400486,45421.29773541173,45432.06251492463,45436.58534583144,45404.481559258886,45400.00442696496,45435.22216522943,45391.21605665457,45377.64046108819,45394.48773360373,45405.742724219104,45396.25946685625,45369.98476382015,45383.35668447095,45353.74270426795,45364.85045245265,45369.063043195296,45318.0,45336.48973464907,45335.0476005483,45337.92768585105,45323.47905647093,45302.37288850638,45330.51972682156,45306.886756635264,45292.54051762713,45265.931892100685,45267.123367833534,45320.49757069669,45302.30995448681,45282.66563271052,45274.91479374332,45280.43755153146,45299.94350019527,45305.59816519712,45281.5307817029,45239.61898208891,45261.0,45262.61230756299,45267.16166391919,45272.80754162689,45235.71742730547,45256.81334340247,45243.72858362258,45235.451636982754,45255.87944943008,45258.80227933522,45293.00126471679,45252.86148755794,45223.08900740432,45243.75395732905,45258.53759304783,45278.89728312654,45236.75003223899,45225.89578712189,45243.89193176711,45261.45291177304,45277.0,45222.91173076021,45218.21966705815,45255.51160821086,45259.475816784616,45223.640851167525,45200.906885132914,45245.13957208436,45242.976366668576,45256.42485265917,45266.92246838509,45222.04321566303,45256.98864310823,45249.91436262428,45216.16945951113,45245.95286172324,45242.15126900808,45249.54389757482,45237.44672565982,45218.120427920025,45242.0,45225.21575326638,45239.96867298638,45295.68637750271,45334.619207276926,45417.288517269146,45433.661183269,45332.73251299328,45280.02225186512,45280.91860230672,45283.423566444486,45283.61809025884,45246.819184446766,45231.73806236876,45253.42504073972,45254.34952743264,45248.02459388259,45243.491910129575,45248.28969960077,45273.92943649703,45284.0,45262.23654493589,45274.38285069541,45313.37911266638,45308.61923643235,45296.580530849336,45302.64697296311,45330.970749372354,45342.926188295045,45305.1475214306,45303.505448231146,45302.7026761147,45299.62761828839,45344.261646930936,45354.816455272696,45381.541584535255,45422.791652551714,45399.244335863375,45390.4789670947,45399.84828819842,45385.0,45366.507631844,45327.606418308766,45278.58112384978,45278.64461162346,45285.64428681989,45270.001614069326,45305.1173487743,45330.45227704133,45325.73721140175,45329.44797125145,45318.12887521478,45364.54314460712,45365.26562182556,45290.605100866334,45310.48108026848,45351.2559394741,45373.4517757185,45360.90684878844,45327.95049620898,45365.0,45393.55913018082,45404.15634700093,45367.30606332352,45339.61894710016,45371.47864943675,45338.1899962023,45343.112573795945,45344.6561496554,45328.00239184128,45363.02716078425,45331.427991346376,45325.21226678733,45321.07710760309,45340.60118698923,45361.98161135824,45325.363941963966,45355.593677926205,45231.18632760402,45388.795778784486
53956.0,53959.67093971022,53950.316515323204,53967.215288366715,53970.69710317898,53970.908003022094,53961.36357666145,53960.047291514755,53968.07890882157,53938.14380178769,53917.17629854347,53924.152973472126,53924.85626720498,53924.93678873039,53924.88459305266,53926.28840743824,53927.01691355746,53927.16907367731,53925.54274721038,53925.747936889595,53928.480652319464,53907.99940974438,53890.73683236449,53904.39294995303,53918.36979714676,53917.00000000001,53915.960408988336,53921.8449109158,53920.13216542422,53927.661985988365,53940.631097515245,53938.898237521,53939.42997870218,53928.81192330386,53921.153509091455,53924.60262100121,53915.26328945253,53919.00308624302,53919.51441303827,53896.17332645385,53884.408259913085,53902.49006382409,53921.598187169715,53916.993029198034,53917.83983881478,53911.11706053082,53901.42035953077,53917.180391824964,53918.00287164948,53922.213723038694,53919.99999999999,53885.687628797714,53877.83027361529,53883.72375092542,53884.68503824263,53882.59362412945,53884.87794680614,53917.654815828755,53927.7344144434,53909.97891297526,53905.5329577729,53906.35263937632,53905.459296669746,53893.192532650646,53889.67676286609,53897.668570150316,53899.20205693135,53898.39625252736,53900.422781830646,53923.76318231102,53930.575642270654,53900.335813945465,53888.26380223657,53891.65345518292,53891.84808571769,53908.0,53912.2649057123,53880.628468538074,53867.570375821095,53871.62761005572,53873.07151971515,53892.800716846024,53893.20406839145,53895.417799060335,53906.23195675239,53896.113963678305,53905.38243811158,53908.38952793613,53908.05077477268,53915.22829623195,53910.84679575877,53918.659037269776,53907.18487327984,53894.820191811974,53895.29353533796,53888.02682148408,53889.985903951165,53883.65998380084,53897.09705935081,53917.82714909304,53915.99999999999,53915.471236156685,53913.11622583832,53919.44728057323,53903.78485464032,53880.19230769856,53883.14530904398,53878.03371493115,53876.166742942565,53876.90762829424,53879.07861176625,53881.73166783217,53882.86719281937,53899.64605322799,53902.915888840325,53898.971126474564,53904.692702065055,53912.290617783845,53907.90989900116,53888.6414684215,53886.53653400678,53889.81020942662,53882.805468962935,53869.08503411499,53879.30605300432,53911.99999999999,53913.32649960685,53912.16732149029,53903.24850929822,53886.92181990658,53891.32859041803,53873.94187781175,53871.981400161145,53893.16655524081,53896.31404397226,53895.75768833125,53898.17089013801,53919.1836782269,53919.541015178234,53887.596745890194,53880.03556949095,53881.855940599,53885.46920769983,53908.16441182742,53906.31758789339,53871.63795154032,53863.09425206448,53866.5343047505,53870.439527481394,53896.35747712837,53892.0,53875.91907085238,53878.3507162758,53871.17849639641,53886.793031565765,53908.82318810553,53905.6155490486,53899.536567960706,53898.01938723633,53900.95927636188,53894.176545500515,53887.43524614555,53887.66832859319,53878.80445294166,53876.73178365647,53879.57789250763,53874.66998865381,53868.21275661766,53871.6120041763,53888.34034585333,53891.00608035733,53885.71047972295,53896.84724642914,53903.99454812303,53902.96584823205,53905.0,53905.317997121885,53904.073107948294,53909.73339867725,53919.04924810079,53913.23080931959,53903.815869481434,53903.89903689274,53903.96690744536,53902.73534849106,53895.468666082255,53904.42199639441,53923.99517526127,53923.22519932591,53924.52534907101,53904.94752238441,53876.21796928606,53898.49432817218,53918.70264009976,53917.89647224888,53919.38605661141,53912.06715261859,53914.63797730912,53906.78999173607,53912.26681575441,100.0,107.0,21,1,165.0,68,24.977043158861346,104,61,61878.0,62162.75583210993,62046.2720276285,62200.067058028384,62090.92806439255,62099.79915633168,62095.72323522733,62088.37301542016,62111.99897021909,62267.84181940941,62529.59089449217,62413.28698848933,62229.31464062022,62228.720061958855,62383.17615984908,62610.47883327941,62661.37074083395,62529.95816446484,62383.14769375968,62416.18335839719,62504.48886974481,62519.52804299277,62409.221871151705,62275.418292816415,62179.99332223333,62003.00000000001,61987.89322657677,62009.87753612385,62077.58377572481,62244.81515413884,62128.47463149049,62030.41209901201,62006.345511898064,62023.22412698814,62166.78163056552,62046.514164847016,61949.05077489116,62065.549080070174,62080.61802792987,62090.107426655806,62125.15256538485,61943.61409588486,61782.70456416203,62006.73723506547,62071.5366555885,61986.32551434126,62174.190152834526,62037.01603713997,61796.41256753399,61900.5114844407,61880.99999999997,61967.47357695968,62166.39691720705,61967.908011784544,61759.60675083855,61773.87530324128,61783.53091626753,61875.588010178246,61876.12126581703,61676.84215431584,61630.18382477474,61721.48918313647,61810.20191733305,61985.24419225656,61983.5182547065,61779.899550645496,61812.08773921974,61819.843835749416,61593.94269685737,61511.22200283385,61501.4156843332,61572.46273262576,61658.841680574216,61418.66531731519,61243.06159529281,61304.99999999999,61345.79756820836,61438.76480909054,61409.32394761917,61308.67147303222,61407.50414934046,61503.20894319956,61603.29759852585,61618.7234001509,61352.34980472547,61271.18979206016,61401.48744258866,61429.480582656455,61540.481719553005,61540.24465926268,61356.90801801054,61344.85907027468,61372.97465338455,61359.208220987966,61382.025746080864,61330.88793019561,61218.55554247432,61169.61929159165,61291.35590316064,61365.61465338515,61312.0,61341.71191279576,61222.37606323234,61117.063191541456,61224.707320071415,61189.99539064989,61273.45794912028,61310.2799298214,61055.86713411552,61139.90239363533,61245.35807604739,61132.05087235104,61231.2685245974,61243.53053530668,61138.23327125221,61095.35036001923,61051.99951440991,61118.826499364746,61178.95457982997,61248.92556424482,61283.33286026231,61061.53007713056,60979.56666075901,61146.76098584096,61219.17400611238,61245.00000000001,61235.41545338879,61143.28990383955,60955.96394207534,60830.98010266851,60943.620474035146,60957.98396693092,60977.167757866766,61125.83584726182,60989.67666593454,60918.72714011332,61094.810337507406,61123.77680642998,61196.4827391212,61287.43812011998,61106.69102579022,60954.11626662587,61002.49059886857,61014.81056078963,61076.40386843351,61185.34111874693,61058.22422730849,60955.996889845934,61050.49845343507,61053.38802367187,61083.0,61123.708232621,60947.31528466657,60867.26725443645,60931.43211106851,60932.335748374186,61016.96627664509,61085.93664909428,60986.2625427892,60850.64620333066,60818.03706870252,60838.5570024466,60837.44770953384,60949.84822604212,60961.81416224833,60752.03450875165,60710.75481131414,60811.14539705202,60843.02266326587,60905.56035086183,60953.686453396185,60827.45639115384,60742.39592496638,60796.386336467054,60831.52495592625,60882.0,60904.0400932712,60927.23451175926,60805.54183014351,60665.2125224673,60781.74421416703,60745.322035334015,60774.293621312325,60860.122161601874,60725.33808285464,60705.14466708203,60641.67783146847,60689.68680083239,60749.44700822477,60756.004934723074,60902.41527969174,60717.56099480599,60600.685349834974,60634.25367463074,60648.60087313666,60717.24973878596,60688.376952655606,60816.25359956744,60506.47167399016,60672.33451317141,42128.0,42178.110963749634,42125.97087475776,42187.948865900034,42127.19115043921,42162.0196426917,42176.99348970688,42173.26230349572,42227.65029244311,42313.31884740386,42324.61056019395,42259.38038767398,42245.87894684138,42240.95551415296,42368.73501780793,42439.08635690409,42355.05418118877,42372.76226465576,42334.700177831495,42341.15934043225,42434.1661996828,42358.28155348064,42292.602646109815,42293.12852548794,42233.97610845909,42216.00000000001,42207.67378441965,42171.57862314511,42217.60950681361,42213.36666073587,42166.82751558318,42191.43949219064,42153.56833151787,42158.05927930369,42198.32784706933,42150.12858339668,42151.79532100476,42179.03593458821,42186.43346349079,42203.08105333598,42175.98877843997,42119.56483780978,42145.35902290259,42196.155483625305,42154.7629096375,42176.96294782339,42212.935542544335,42133.9840980026,42104.92931511147,42115.27035023325,42110.99999999999,42170.32689779094,42210.80352034896,42132.84882288984,42068.47529840942,42080.50563186543,42091.55585058682,42101.03729252118,42056.03684062466,42027.67348385462,42094.57241048744,42149.028810216965,42161.759909468936,42111.87062091781,42094.73994515702,42154.10134770998,42114.16504434215,42030.562515522186,42002.60599851388,41963.81787042093,41960.46284886152,42001.680582507615,41958.04264011167,41899.606735334135,41915.93779373186,41909.99999999999,41922.01738718532,41940.0221584608,41902.2276917764,41904.61621577002,41932.05977369874,41970.34419569829,41994.36014332916,41929.80728669715,41886.66993100116,41906.62301023612,41920.803719814365,41950.66210456484,41968.00178426387,41920.36135182372,41892.52607144458,41919.94623722459,41904.36729566581,41902.41752010965,41927.15589508696,41853.24086892738,41823.17939728145,41861.93580094682,41832.15953960188,41862.96397552879,41900.00000000001,41857.09424507249,41853.54328065978,41854.250336491874,41883.528605321175,41930.00992054025,41926.82403554142,41929.95295949186,41889.748169494655,41880.4865173359,41925.863299643344,41882.72790107996,41882.27699539647,41895.87754897955,41800.78473924919,41788.19114523109,41827.69972945748,41821.486279575176,41841.106626435605,41835.258786896,41810.419043184,41780.852916520846,41768.5175755427,41808.06541293494,41813.19589238407,41838.0,41837.91637179747,41765.58482472336,41780.61068897434,41802.35476993181,41802.99284921832,41822.886177431465,41797.70553514369,41801.09339020056,41788.18783525156,41763.13917800254,41806.89401317163,41812.25820394272,41817.29733697028,41845.72858992512,41790.757682442185,41772.2638509683,41822.24372000001,41810.46156813032,41827.44845776597,41856.4200608852,41791.46189566796,41779.98970698553,41812.68672938233,41776.619689992986,41772.99999999999,41776.58598574947,41707.10767190775,41692.51376489083,41716.8054684462,41696.069036536326,41723.098723945535,41720.92903134908,41637.60996409076,41621.47714230764,41636.69145273801,41622.226154880365,41646.67311133254,41651.47845130876,41586.85380931829,41579.564512125,41599.46351610428,41598.34536656702,41633.23046786611,41627.05315331068,41622.64253742434,41603.52100342666,41563.25296036751,41603.31721532733,41596.96092631358,41599.00000000001,41620.73667509631,41575.17106709299,41565.47753152941,41569.85323777945,41576.40738673699,41566.41246618741,41585.47870461274,41601.57188883333,41542.95495757566,41546.20388617365,41545.17463558802,41553.31034383997,41574.257261175946,41560.193639331,41573.12861981513,41527.02005883552,41505.211958032254,41500.93082272244,41508.60097789234,41509.0582926171,41487.75540939901,41531.311329131466,41388.572164089965,41570.07063493346
53960.00000000001,53947.73093670467,53947.46962424388,53945.73272945558,53948.60172375166,53945.600268303315,53947.469244200554,53955.900079396015,53954.650774436566,53961.58936613687,53963.6088328441,53965.20241610789,53962.904503703685,53946.23059628924,53942.8455663975,53952.099229587504,53957.679059877766,53955.03736198734,53956.156362180816,53948.623576716505,53944.763712462045,53960.544777359566,53961.771665204615,53965.50229964793,53960.250950233174,53952.00000000002,53955.355682421636,53922.99754652517,53906.181016418304,53912.56885068099,53912.03690501404,53925.54678490532,53925.67974722003,53928.361407695076,53934.929562275596,53929.563334030834,53934.24892794278,53939.19377604416,53939.22323395351,53935.03957280277,53933.814686995436,53932.81023852945,53939.00932447037,53967.847841977244,53965.51167278067,53927.175069791185,53917.3082392385,53923.48102327252,53919.623693834714,53924.33640735882,53923.00000000001,53915.960021694584,53917.30478111304,53913.13319946519,53922.4708487727,53934.10539711353,53933.042472286674,53938.26165204161,53939.727604838474,53937.98437675893,53943.517765439814,53963.68046031444,53954.80949527769,53917.02688855148,53913.648616005084,53913.574325789465,53925.14799822732,53945.86615686976,53941.53150748002,53951.364676271034,53953.843458656505,53950.09943718108,53952.96012936509,53950.54871506566,53949.94691258488,53936.0,53934.91876794189,53935.82994302035,53946.98161777255,53975.21602446464,53959.14516105355,53945.06680249769,53945.99987862707,53941.63167003774,53956.318235296945,53962.93811267993,53961.44686754225,53955.26379793234,53955.22306767587,53958.95577389879,53945.251904297125,53942.94319004098,53938.4927047001,53927.145903637516,53927.89965314717,53928.18643385359,53926.01897383069,53919.3032279313,53930.54824016844,53950.07722647698,53948.0,53948.12621324106,53937.59992890584,53921.54221599767,53940.41498014727,53956.145407424396,53955.07143461809,53956.16423543249,53939.209866555815,53929.24989295453,53936.39188760046,53936.62479946482,53937.04061180699,53936.71642261274,53946.773615827304,53955.092518427366,53944.34843878876,53939.87494627798,53939.78301109549,53939.81612113574,53947.56493660991,53953.81748013468,53937.55088438529,53918.83255707224,53924.51694941016,53923.0,53923.60201030843,53926.87869960128,53924.3465648469,53932.00848428702,53927.283100840126,53929.22199011056,53917.86657214749,53904.808914090296,53943.84905460979,53960.8439241643,53960.575920242714,53956.89432021238,53922.467009279884,53917.007390097635,53921.87810840983,53917.36850324315,53919.4809688283,53919.454600013145,53929.4952811291,53931.741251091276,53924.86507437034,53924.122184489504,53923.764110372686,53924.222199241165,53925.0,53924.5051254473,53932.63490687556,53942.30693185615,53933.38344887533,53943.65390748314,53966.52869273626,53966.36422586367,53966.38739075916,53964.17861468532,53969.746352202346,53959.05860374185,53933.871731877865,53935.264728266775,53918.28519095539,53908.191692670516,53913.45008209297,53914.3945436153,53933.21754321136,53931.398389276634,53934.63261341765,53941.52337268796,53935.35250019568,53937.399979567876,53917.93887176232,53921.99999999999,53942.25591144331,53941.751381107206,53945.567353030456,53939.314183150505,53940.529025013646,53938.38547838607,53924.03748994019,53922.487751819,53923.51452095251,53919.46356512738,53902.218813813786,53909.47756486135,53936.64646079069,53938.97997834922,53938.07063287463,53936.22592333201,53935.889536030045,53933.14458262291,53906.36336783213,53898.43608045259,53939.30772054903,53963.336687805,53951.49529028549,53958.65967496959,100.0,136.0,22,1,167.0,86,30.83653053175087,108,80,55798.0,55843.71038761961,55645.06635524629,55763.096384165874,55618.999936611785,55711.082111641554,55682.981382629376,55670.68948484258,55738.55474011562,55592.25536540893,55598.732920227005,55602.9083135861,55552.79076248563,55541.21211808255,55550.61888254143,55591.629154474766,55537.15895596177,55471.75413116056,55469.904820789656,55477.28682810867,55472.793593268136,55494.039751650285,55423.292530407394,55360.31003452392,55445.08660130527,55402.00000000001,55402.79552401057,55464.55156211253,55362.611672495055,55380.65226464974,55438.9049644596,55368.61597958597,55360.56436540218,55409.221867173015,55373.173709293245,55306.37853459162,55302.31406507956,55302.020367397454,55336.30461194189,55399.40061503575,55370.37268304406,55287.10443429316,55254.83474070053,55252.9929642004,55270.29553430098,55287.876455621714,55217.09179617724,55200.66122355944,55239.54802948543,55208.9956425734,55262.00000000001,55285.96869687208,55185.504876369065,55167.55852923968,55195.44935842379,55181.45472187819,55210.23412754045,55215.82100647615,55137.08841456951,55132.99102132664,55151.168533977325,55147.93383251468,55196.913608808274,55194.648940144696,55173.09550062899,55131.147971360544,55112.63691474965,55172.40089019511,55158.04071016038,55168.8419727254,55172.36540614936,55089.48790642041,55102.268055798326,55118.976611093945,55109.51086746059,55128.99999999999,55065.2830147235,55027.228841641445,55055.99480628913,55042.8189568025,55081.34620726401,55094.22442813134,55008.89275629605,55035.75387815103,55062.88239227738,55000.510668933246,55038.09852258123,55039.68691497702,54960.21479655941,54977.53654576561,54983.07124316876,54961.02418427469,55007.624944730094,54965.6713765527,54880.073054560366,54907.65880638596,54909.33060728278,54898.93144908776,54952.53565155945,54927.03411002964,54878.00000000001,54928.88386271863,54951.836548970336,54944.697712441,54983.69365250127,54924.62166328266,54849.7544868113,54900.68893824009,54908.79229450168,54906.23374096945,54948.81724481501,54899.36876615568,54861.7396451402,54918.14480476856,54934.21948327733,54940.33410230903,54977.76176799826,54914.50452074684,54827.80113042193,54862.20263454648,54883.356219213776,54867.00591642311,54913.58317054303,54885.42382990791,54803.56623560606,54830.0,54839.73491917806,54820.70858527109,54846.32321014171,54850.819530949535,54812.93988496564,54762.08469018868,54795.19722872324,54811.819472032665,54801.08470673077,54859.02108046995,54789.71726280719,54721.66752452116,54765.63299063098,54764.98598938722,54796.56692363537,54825.45661545305,54786.64746386155,54737.763883189225,54734.82646450848,54757.02536353862,54759.71915842881,54780.393577059134,54752.84891535837,54707.6625376918,54714.0,54733.33485956088,54771.15573562712,54807.69792404199,54809.95621177404,54754.49911557404,54727.60244763934,54751.892967791566,54739.79024879693,54732.59432213955,54749.24932971554,54705.58778141066,54638.916324522266,54681.45973824201,54687.503679296366,54673.02369740687,54742.28374066612,54675.313077929226,54622.38759926229,54662.45358866343,54651.37221639144,54677.17538004845,54692.83570681452,54639.9385230207,54591.73602462863,54641.0,54653.94844855211,54648.536206606965,54707.58923530948,54637.26512781124,54601.110767679456,54631.66287091563,54653.31062800417,54690.84209943543,54686.44702961447,54705.74801630407,54636.51277118199,54604.08650506327,54609.27893355784,54601.72372464926,54664.85403795094,54622.79446944642,54618.371208373,54549.43740625829,54566.57338089538,54633.30488423444,54564.50640548262,54727.714644440624,54482.74837720548,54707.254537322944,37551.00000000001,37599.30522766389,37494.44164218421,37551.92863086781,37482.79853684805,37534.33992812251,37498.50762249116,37493.98270702927,37509.452552854265,37461.36213180819,37487.820157731054,37452.81896214329,37442.98371451117,37451.23653098251,37443.135658734216,37436.17445030222,37412.15295238308,37417.81023706989,37408.27581882948,37429.75497811423,37421.07824787447,37382.89657461547,37365.31451646111,37337.10880343589,37358.04690844919,37351.00000000001,37348.7236759926,37352.38382722746,37309.85019419057,37321.79905301313,37325.49725625326,37297.09659840253,37298.45810005394,37310.79809397039,37274.27245974202,37248.623474736574,37278.95058654772,37264.99749173878,37281.0360649904,37291.78898666996,37240.414021716206,37240.0825464926,37227.77506853367,37217.22605551304,37246.21094266797,37237.72788417149,37212.84815615988,37201.834547316445,37194.87064768448,37198.88851621915,37205.00000000001,37191.56268407729,37183.04921978655,37165.91332818016,37158.04637612576,37178.0355142347,37163.96136029536,37157.60590035366,37144.65480135796,37120.00392443069,37143.250128390326,37149.06961808296,37150.1588477126,37154.56071387215,37127.92049850622,37121.82499160774,37138.66656184136,37136.35195849274,37129.77218730821,37142.93939486667,37118.129634892735,37104.37204491296,37139.43133353408,37126.3775003224,37133.74762687202,37138.00000000001,37078.6456120125,37088.63592235006,37102.709551809385,37085.822761383104,37122.21404474218,37108.59989187326,37075.08271092877,37109.87931082519,37109.271305220376,37084.64765131755,37094.07429278458,37060.424119356,37019.04884077668,37043.26039592237,37045.94047657612,37035.35486417974,37056.47879152192,37034.78093811517,37021.398723083,37027.41445591593,36997.32768887118,36997.19475084687,36991.68188230132,36973.8014680177,36992.99999999999,36988.26474527619,36984.15618031055,36996.99504080768,36968.03850423783,36948.37493075538,36966.559339652784,36956.6726929851,36956.65875459744,36978.42978996405,36957.984463090994,36958.79873802047,36960.941518312895,36936.12654362436,36956.24330622284,36958.044456247546,36949.935021225385,36956.89912332941,36927.95244428153,36936.27870522167,36959.58268678297,36941.34019903082,36951.57964854062,36941.67304422395,36895.56892255303,36914.0,36922.263492849495,36902.68477362331,36927.670763942886,36903.15420194569,36874.61914312503,36906.08376220428,36894.265286293776,36883.92425583611,36901.61938322057,36881.33571130357,36867.65477686152,36869.45618181454,36858.4551589126,36865.15885424736,36872.84066386846,36872.42120806057,36869.62881178167,36845.92996624716,36849.90047377708,36864.103276433234,36852.23600641574,36869.45571500629,36877.268568304855,36841.71776899415,36848.99999999999,36884.68499244581,36876.94711649811,36891.4578310751,36889.05682083332,36843.43267228943,36867.76040557416,36864.50162565203,36846.47680514419,36871.91413711908,36837.02925958832,36818.41683660445,36812.73290991786,36788.49017333543,36798.83723763086,36806.457668975614,36801.97499489725,36797.62756125788,36803.84811228877,36802.136982261465,36806.82549906278,36797.86681760357,36782.7303508288,36793.27532571061,36761.33532527425,36771.99999999999,36790.569829603184,36779.97003732089,36809.455325824456,36779.74120228538,36763.61908846773,36779.10913610124,36776.490387097125,36781.47524069832,36784.21789096053,36773.41467000999,36742.14616231087,36778.79410994678,36757.57103082438,36750.160435652,36793.87112664633,36725.3565110596,36754.63999753569,36731.125979619086,36723.16563411601,36771.036291296514,36720.569987498166,36802.766231447735,36653.21309556505,36842.34921815135
53859.00000000002,53838.796299084715,53898.09021867885,53870.06039021865,53897.00279773572,53876.52012944362,53863.12169930311,53862.785900721465,53880.51073223757,53898.27842504235,53886.54112112456,53891.11140130425,53867.353948859934,53867.594556588374,53887.44023527434,53886.72140029038,53889.01375297792,53888.97503401097,53900.5232883552,53899.33474827726,53898.59550905563,53901.3865971301,53899.2755849557,53899.91081889558,53903.64699893989,53902.00000000001,53859.079128160345,53846.91611410305,53853.136740377304,53862.531472911054,53914.27473869518,53902.04304189307,53882.30000742584,53889.91481316132,53873.179193988806,53907.76176090911,53942.21649346258,53937.53155450979,53939.655483982024,53940.24333515035,53940.364001778245,53937.77156601388,53932.99281827175,53934.28305716557,53932.24135753494,53930.683904379024,53935.16113441488,53923.03616372105,53917.689954825575,53913.96843295644,53889.99999999999,53889.39946912898,53886.72093922329,53917.98433148289,53976.499283895515,53943.16166882703,53900.38342573161,53901.16081741426,53898.75168753276,53910.55022947154,53916.81367105575,53916.39427805781,53917.98760170889,53917.85973098528,53918.65818965887,53916.020441559966,53916.58685766753,53915.705381247404,53921.21607336009,53920.5884565361,53914.23675696042,53964.52839895182,54012.231301888976,53972.637874140135,53944.315773615774,53944.99999999999,53939.21561540576,53998.64949505479,54037.470008979435,54013.77556774814,54017.566477989305,54014.53449127404,54014.37712708963,54001.01848765814,53973.54828546762,54013.404410941526,54039.28969234345,54038.82952803474,54040.37454052388,53998.36300005726,53982.50764684403,53991.27020546098,53989.847033937316,53989.32958583747,53989.18361151886,54022.404294475804,54034.9930483636,54029.77213720153,54044.588458174745,54038.336995208076,54040.0,54010.86057444292,53984.70995970593,54043.34310028849,54070.60571314956,54069.91693242966,54066.47417907869,54010.20303245791,53993.98935557833,54020.2206485665,54023.065725036315,54025.261050277324,54023.23307451029,54014.51218945349,54012.9463014703,54020.25548916936,54029.528223529975,54022.99133800052,54028.17051980552,54035.41965696787,54029.296616978565,54076.64584030729,54110.08621864965,54095.59815074646,54107.87698462905,54105.0,54105.01648826987,54080.60102343681,54040.302744234905,54085.300867146914,54113.93484057166,54113.33621776773,54114.7463163135,54107.3478739047,54121.1009540322,54092.41114555698,54069.495603444644,54070.45584970257,54069.469146555646,54090.602793919876,54090.592631093714,54103.47234374474,54116.05983052104,54115.524440469424,54115.44634881941,54110.74938458906,54123.39360962625,54083.79954934337,54051.64292676729,54055.22765964654,54055.99999999999,54112.85331055974,54131.8990480949,54113.45131281566,54116.44499290909,54115.44204851031,54114.090716577,54069.00339189631,54051.73699326311,54084.30358068197,54090.96902210555,54091.249038828355,54091.50365980135,54111.536947854795,54119.88358901713,54097.14485956624,54093.716550566554,54091.70711135842,54093.38027752909,54080.24035009145,54071.347358784726,54117.441150236395,54134.60986707256,54134.53566604733,54125.380399071,54069.0,54064.701959395104,54074.02797534794,54065.14193855202,54070.01866617791,54073.07840979923,54119.13689997322,54121.55249999757,54107.28299817549,54125.14947058028,54103.99337499259,54126.53775749769,54144.606482376235,54143.99349409148,54142.460337751254,54124.775641825516,54147.2517615893,54121.62655005308,54120.74053372362,54118.991904964125,54092.0686272695,54114.75738068687,54068.84268978284,54146.10948937298,54130.09687075267,100.0,150.0,23,1,177.0,107,34.15365954866098,111,72,65781.0,65942.14196093539,65286.97911714493,65268.67737413998,65683.3981250198,65695.30382001681,65888.94304731803,65922.11477995332,65507.31183617128,65412.89729956156,65630.08290329816,65660.26493955195,65842.93067635222,65910.32247394504,65395.78158456814,65370.8722018262,65671.46632872545,65614.87159706424,65798.77189728829,65832.48954337242,65605.81666268941,65486.35259258328,65509.256389039554,65768.49173431595,65797.55601228758,65931.00000000001,66020.02143058271,65526.22367346704,65514.79665953174,65841.87678267049,65806.26321907615,65954.50708568911,66037.39913861676,65674.22920751871,65650.2415048,65930.76450125003,65887.78315514664,66018.90909296283,66085.7661371333,65808.61478886975,65810.79646957903,65905.7295559226,65999.82165185681,66040.8931865007,66132.66084891261,66200.80564567281,65802.939381277,65833.51026516475,66159.71348534407,66084.54877746047,66192.99999999999,66248.82594411542,66076.19251980848,66015.4354669492,66075.42637008615,66195.4708094397,66212.2470943679,66242.10380418166,66236.74098756826,65973.55588422973,65921.09902518068,66184.08340602944,66145.1923410302,66202.06985232444,66336.20924924561,65923.54767823503,65882.12633382254,66163.78723664208,66148.03788322161,66252.28277693459,66271.89741581223,66249.89250067741,66113.75200382373,65956.82552883828,66224.95254749765,66240.0,66222.57127071766,66363.63748578119,65959.59087591169,65829.02227445289,66147.59965224884,66085.33292590044,66149.30588710225,66299.92110831523,66038.82182776052,65954.70656549919,66105.025590344,66203.89588497058,66272.51302576264,66274.93346190831,66322.05874614931,66179.70919775133,66056.35042777183,66252.34626499575,66259.53686779745,66275.85782736924,66403.54641213226,66100.5415346206,65923.52281831732,66193.61743604852,66191.99999999999,66220.6141208003,66369.17534025807,66027.73373151138,65877.95254363162,66079.03949781603,66148.59955953338,66229.57850552237,66274.17577615265,66334.97336651855,66126.40070345257,65910.19637959215,66158.45225230389,66147.38206814551,66145.06613380238,66323.96087744019,65997.8967497771,65844.09580720907,66122.97127905575,66107.72123362418,66146.4910532643,66325.23250434405,65941.25759511808,65749.6524598411,66129.28800244836,66133.0,66178.83835835062,66355.10505934188,65983.41429940872,65837.03720918596,66124.87988490397,66115.41727604972,66183.91885136192,66292.66132079055,65847.08559370543,65708.76599914684,66032.20716783899,65995.05865847666,66108.68497767737,66167.56179730955,65586.61682613265,65513.590116381165,65976.29964416413,65916.50999855658,66066.44108914182,66265.48477412961,65605.42688705701,65477.17414916,65873.70087626667,65817.37721251948,66016.00000000001,66139.11657350577,65898.78447748198,65591.46420826178,65494.63470274516,65902.63268850755,65950.79336203134,66014.4884078816,66242.02086149906,65732.56272227544,65528.08592893409,65804.52798602503,65971.17840341077,66087.63496658388,66136.14290459445,66324.45616272611,65860.86981245421,65484.614167846594,66029.46502325566,66000.00152597387,66045.76315894767,66325.94038941301,65894.3154614472,65725.56504155607,65799.8973916342,65979.0,66105.6374924911,66070.04670519133,66363.11029597963,65913.49248630853,65486.5396006767,66017.91167237192,66080.95937432001,66116.79030907605,66320.44923808935,66129.90976127607,66005.30327823944,65942.64799790535,66073.82614121021,66189.71669342733,66193.58137009182,66280.26073609547,65993.32583756463,65792.19127960163,66047.7035854737,66146.50450369522,66137.5705147296,66301.2139851799,66088.65216931692,65561.23583594318,48011.0,48032.99743848957,47836.40092530081,47895.28170794336,47972.14804770039,47984.61514718773,48008.43925956939,48012.90636354357,47844.7180304884,47846.23909177874,47966.54043330286,47912.66447172017,47979.110238110814,47979.64112024683,47806.14895971098,47836.62057219495,47923.49684931287,47884.015913929725,47955.02667900106,47947.77342649681,47760.58069465558,47812.95797945755,47894.53760223414,47871.592455801256,47940.783453134245,47934.00000000001,47896.14911215139,47835.42231326357,47815.21286517283,47893.65553628786,47885.02989163635,47907.6663471764,47912.62049084672,47814.38848858262,47827.108486263554,47897.40729086523,47880.15252287259,47907.80748505527,47932.79775869973,47798.03732448554,47815.3071448131,47915.1281946344,47862.37177245819,47934.09254634437,47927.61351823746,47791.6764395009,47830.73264081423,47873.79196921536,47890.32782325509,47907.952879600765,47916.00000000001,47935.595918692205,47830.395578663054,47815.56632458255,47917.49855784848,47879.8360593453,47910.23272394235,47928.18528258746,47782.1320882619,47787.45378459707,47859.4567008362,47846.92177383058,47867.06481422354,47880.8467015897,47853.88497047799,47792.48029704263,47792.85292381138,47851.92975647143,47844.51738285014,47868.58266248242,47874.224842314514,47766.81647691186,47753.72834169125,47819.539321180055,47819.49135186362,47844.00000000001,47844.44238321368,47770.319436971,47729.7902164134,47739.428003317335,47787.264049907935,47780.41955726079,47788.45400846367,47832.475583536805,47720.40702548209,47697.61222609092,47793.10364875514,47771.66800216524,47790.34736534202,47794.650026858144,47718.32690880421,47719.55175386869,47755.77562240428,47752.18787019394,47774.91738684541,47793.951554238585,47726.51504599217,47689.60465613033,47704.2933192928,47728.24532160882,47750.99999999999,47746.79182153625,47764.61967376246,47681.47176337597,47627.542153335,47721.9172631569,47708.54730525376,47718.15750268741,47761.48504158629,47664.52845854723,47624.47847588961,47667.63052862294,47670.1090348715,47682.41138822072,47707.43358015734,47637.36771415237,47586.167251478735,47636.47981868052,47638.88176488105,47661.363105452016,47687.31011238421,47611.52313157803,47569.60761209823,47591.939760740766,47620.49561197696,47649.0,47660.94516571216,47620.208123319935,47567.56394592656,47582.84359239084,47602.9727824541,47635.38434639267,47645.93188267272,47521.2782694212,47487.84798306532,47569.38612788892,47545.182936592566,47598.06759311511,47614.09396450889,47423.68248357711,47412.00957877711,47507.33958772503,47516.87953693097,47555.49951440792,47566.99977093096,47553.71155680761,47428.45865096524,47387.90339579108,47519.408399205895,47469.893888733786,47539.99999999999,47580.5050043143,47328.85323201835,47351.9757183923,47452.05769758928,47453.90640046753,47505.08779169802,47511.98769302912,47554.83836616846,47399.21370911213,47328.158472232906,47505.69694517666,47474.44210250975,47499.84939980644,47546.308303720194,47466.20934942402,47426.86816464294,47391.27020521781,47479.17291221432,47488.00664974837,47486.4359939736,47560.78167385103,47393.80480622558,47339.00105847329,47457.83273531104,47459.0,47479.88155338386,47512.84452223712,47455.33965174099,47367.267533476486,47381.33760744209,47454.51020119047,47470.687961090975,47483.89223568714,47527.09501495956,47430.384317231474,47331.75652727685,47464.741939897045,47453.71142204797,47444.31882313284,47545.30422364228,47367.3580727056,47320.665003528215,47417.56929903296,47427.66383724978,47461.0170382535,47454.22492560342,47453.50709239646,47293.38416372526,47453.56066892448
54060.00000000001,54072.39538491747,54059.81438831771,54051.26303354158,54004.86739284888,54025.78358072897,54017.75497002426,54013.25820176068,54021.90921582381,54005.50625430244,54012.63344389881,54003.81189060689,54010.47911309639,54039.29200390042,54043.87847163221,54029.88309436956,54020.17025857645,54024.31552589926,54022.907700227624,54030.50284773859,54032.678743223696,54028.8226193189,54033.06588585883,54029.667662724525,54030.94534869811,54018.00000000001,54014.50773297268,54034.38560413573,54035.66786753594,54040.36507814645,54031.21298776908,53998.88069901502,53997.712884062006,54011.57349113302,54012.95265437335,54013.26159251594,54013.23924849221,54019.86629559169,54020.27646597066,54000.64813823117,53993.26618404251,53997.96408171725,53994.38667893139,53994.43938761288,53994.30854149413,53984.075042009026,53980.722123696294,53982.10197290515,53985.97848807098,54013.24603852558,54008.0,53969.53441686959,53965.58976992446,53962.86815039789,53976.5716472338,54000.971994788524,53997.89798818905,54005.67219634674,54007.703177976255,54008.66063835333,53997.755387214995,53975.24247265805,53979.32652813946,53967.609285616476,53963.36900591813,53967.82691078566,53969.92766816186,53992.58146265814,53982.47337480055,53966.13412909678,53966.36604057896,53965.77144193535,53961.35535408995,53942.96258168573,53953.36279370289,53968.99999999999,53968.637069256285,53969.910406811534,53970.33432414722,53983.61476124326,53972.055320066174,53951.650962247186,53952.12208426314,53950.17098810842,53960.96791638018,53968.293539114115,53967.16825636988,53968.997446766094,53968.73058655678,53971.041686192315,53955.79960880804,53941.42730614818,53949.643427180024,53952.7294786729,53952.79718330163,53954.992200377914,53937.92549494435,53921.73690526546,53935.862277756736,53948.80891683153,53948.00000000002,53949.338953379774,53930.831212478224,53911.30898609278,53933.67432999457,53955.00901113995,53952.97213970597,53954.20470316022,53930.84304653221,53911.444110293865,53931.47240541948,53938.55002122891,53939.58188810158,53940.12825050464,53922.859788987815,53916.71857439927,53922.28928869899,53927.1126833828,53925.48257189021,53925.756902281464,53930.707665386,53930.66677710359,53931.40791245373,53928.90311359678,53930.68257814304,53930.0,53934.2066624546,53943.23828679917,53916.36039831054,53895.93933745108,53901.310617078925,53899.716897492995,53888.362051111995,53879.77884418341,53911.619549308576,53935.62069033646,53928.02222838276,53930.24467675626,53926.4562137995,53926.19893900518,53918.43334643921,53907.58427492107,53912.5673941874,53910.91525832941,53920.366434988304,53923.57240864763,53912.630207169605,53911.07407147494,53910.908956439634,53910.62248720634,53905.0,53904.4177469417,53905.15036444667,53903.18391490227,53904.31686707358,53904.26335856679,53905.96938966173,53905.10980610531,53919.5557206626,53927.73671108087,53924.47452033128,53921.79328040915,53894.59524394915,53895.05533977762,53908.23390570746,53903.906133969154,53910.78781690578,53902.85531988534,53900.752461194235,53900.453700254606,53891.36922578996,53891.940009984086,53889.162872349334,53894.34282449435,53903.319161953026,53902.00000000001,53880.85621343186,53873.56272923433,53878.96079265226,53880.92478731304,53912.20260836686,53903.28555792214,53875.59447631532,53876.99280915317,53870.49175230347,53883.73666843705,53890.959638707136,53891.12898450464,53883.43261450308,53878.451605018425,53886.812124425036,53879.49778070157,53904.770429268676,53888.409882946406,53857.89211958775,53862.31611541634,53846.4307511328,53884.775672159456,53874.542871981634,53909.45310609715,99.0,68.0,21,1,182.0,100,30.189590629151063,120,79,62554.00000000002,10764.557813267493,-4297.689291118644,4612.481374077294,2708.2481823941507,34453.88388124477,58806.96312400002,59516.79655456205,60349.3404149911,59493.70302073352,60803.558169171934,60319.823615664216,61008.67393861427,61190.28193483984,60615.36693574785,61654.89823028183,61068.828107025365,61803.33665082887,61416.39754616902,61370.400157620126,61410.71887101619,61018.695847280185,61714.59574047306,61214.03870075948,61450.81224524019,60890.00000000001,60841.0211230283,61309.29586414507,61016.69200390947,61192.3901381876,60529.701256142434,61281.871320454,61256.98208033333,60798.65924760728,60843.56483838616,60004.98266061512,60790.26618115358,60653.97714788021,60756.494531898046,61316.94786377702,60815.17348344695,61105.53309898403,60908.285651834085,61284.65373806626,61231.71653649154,60551.50605630376,60808.14783797872,60822.45343524424,61142.63249384693,61439.52319172244,61410.0,61210.82524351262,61293.50073301383,61488.976075785,61580.78349954251,61612.71598658528,61049.31030146777,61354.1799508691,61507.535939334855,61469.42482373769,61661.93529777063,61212.42238267951,61692.47858416309,61767.55191610694,61809.49737641472,62068.99161136755,61436.632420080015,61630.25634495738,61716.079701628,61890.22865641733,62126.75141348922,61577.03521937939,61746.57405318176,62062.85225158443,62145.510408263326,62273.0,61991.07982264955,61772.76383232617,61915.47423995958,62008.69033803136,62231.093473250985,62211.7846166572,61643.529206897285,61837.85322990924,62189.30719766347,62112.95625004101,62315.080475542345,62095.81174657195,61675.80285049804,61780.20507963628,61954.64813785104,61981.89073133735,62145.86177579018,62026.484944820455,61687.68178632801,61513.8975377123,61623.605512031725,62129.73809105562,61942.65603279781,61541.17999212095,61404.0,61261.75270969543,61738.10636739488,61592.43987077412,61037.67887386712,61187.26301608767,61306.75192272752,61405.34970313004,61849.68103282007,61813.57769294903,61305.328003980816,61452.41848502576,61461.32109421246,61754.97682190387,62031.59524007644,61288.02512117449,61346.24292054879,61488.99227609814,61593.46351560394,61809.78834288151,61606.01272583825,61961.99959587241,61915.04849997445,61844.27333568112,61926.28421490558,61793.99999999999,61580.59509556234,61119.8104843899,61455.0013490383,61760.38390100699,61507.26168272789,61078.95579824457,61218.82806655898,61393.10364423841,60894.203548393634,61423.14763702487,61481.210258372186,61510.458484487215,62559.59367872588,62494.56666517876,61719.87591874086,61370.06732277379,61666.68732023963,61483.4317617006,61803.988354718975,62449.017357178425,62118.95703586164,62262.6277614962,61804.0747874306,61548.97292334231,61745.0,61425.067086493815,61422.67738904249,61083.05613150358,61042.134457004686,61315.056558177246,61719.01016208681,61643.55968673687,61410.155357132906,61615.37830928688,61481.26931849893,61699.52952963706,61211.89729275164,61417.54207462794,61707.97945906968,61252.194848767,61554.26965933592,60871.29070521528,61417.28057931399,61499.825869005166,61065.89037174704,61671.03159643004,61168.1352184057,61936.95719608541,61630.041642033895,61373.00000000001,61722.67077505912,61327.92912831945,61830.36253203305,60997.13211444998,61380.8542907922,61096.10588365317,61101.34625602273,61798.68699523995,60849.9819680087,61699.12068144686,60709.568087423046,61423.136536208665,61595.62536941482,60864.71669397955,61956.36901352382,60129.38181803199,62094.96575750842,60840.88369972265,61325.01468231685,62192.91261873493,59325.58352796105,64564.49873570648,58258.41355959804,65117.38686904621,41568.0,5009.908955678842,-541.2182823561086,-1290.0201533967816,13315.29722640432,46820.47908283001,41605.84888308373,41063.83643152406,44591.43064534999,40180.77868919181,44614.89698876822,41498.78056318472,43186.55823844519,43169.97512084306,41981.89857389435,44093.94733418899,41923.47492772919,43815.91601924083,42649.051721611344,42765.352594248194,43410.416677091,42246.53154852949,43679.82754295674,42358.08375873076,43163.65674003871,42842.0,42561.8985537868,43319.46135152528,42320.00916830878,43241.48205339656,42520.35901372262,42983.30782818548,43016.17048179759,42434.00278535129,43021.368269696606,42166.84370537136,42955.31655898634,42624.23759165011,42699.38838334516,42996.03730470776,42455.79438505563,43166.279028436606,42552.44539414113,43046.073817245626,42859.70136421183,42506.496560571104,43032.877424670725,42521.40733161924,43167.70076654348,42857.15388133101,42836.00000000001,43058.02879826303,42783.80886105512,43175.85302540822,42824.84483943753,43063.92389426706,42880.7127058273,42881.0511645523,43122.29892872537,42872.815827577,43151.76715785444,42837.52071013773,43101.13875240716,43138.307503198805,43045.38616237928,43154.239901885296,42816.09714552365,43190.01539956664,43016.428824041,43118.21180092816,43141.66909196354,42929.52246886774,43291.82731075272,43043.91155372411,43296.89051489761,43239.0,43002.21806493826,43199.380595208575,43078.58341113317,43258.43563382806,43177.538349414615,43141.47995802739,43134.77450630828,43131.64244808769,43274.32467658986,43215.43770564167,43262.10262238753,43040.004164762286,43100.2492873525,43174.19561159345,43069.99241342691,43292.69507020988,43169.201803658594,43063.44961966497,43071.36453252452,43024.66884046134,43165.404955309634,43271.85107687438,43174.45667366951,43006.43116585608,43002.99999999999,43126.18986476102,43118.5928220234,42914.09539495681,42930.40984566663,42954.89157155812,42933.067575623005,43081.42919896776,43127.00007744758,43032.97217652372,42895.59651414769,43029.2104503205,43081.48069339941,43087.274587329564,43023.06134268635,42834.6955969181,42950.77124261692,42818.230428625626,42967.63463953264,43128.46298289446,43027.95821152553,43107.73470437151,42969.75762444045,43078.328015345374,43001.29905823562,43011.0,42955.66350913501,42797.28820296894,43085.88495587044,42899.25028356779,42881.36793322952,42830.66509676587,42974.61373375462,42931.08231375496,42645.57177419866,43191.2641804475,42944.12325425651,43266.95155077707,43571.14274907616,43091.894928785536,43207.72686553058,42971.92878416152,43219.712594110846,43174.006886029136,43376.00192638186,43511.75221374231,43081.43864515053,43440.54499011208,42999.13535312439,43096.60729883374,43080.0,42889.02097583034,43066.77539319023,42676.607817016535,43118.23339197618,42897.88033069024,43191.04255156032,43136.14826483769,42817.93791954631,43366.20984865267,42750.04012886795,43234.76774958228,42918.32063835922,42938.03213245768,43304.4716536683,42629.177862312965,43275.66153249518,42648.37171160472,43137.04436432557,43086.64305849679,42727.58648997101,43418.318728721,42613.19320317391,43517.44080818709,42873.13027470747,43003.0,43332.631482164266,42605.70825164207,43637.400662083695,42463.58132169727,43320.8732592495,42918.59137532839,42742.78310207759,43654.60121584733,42243.52137375028,43754.32045736203,42446.27492578035,43279.404152803545,43357.00670492378,42241.77231624524,44092.12728041829,41766.87848931684,44098.561560188624,42470.78549761208,42806.16624094544,44224.35420906428,40886.23428121294,46084.22425703764,39981.97931009975,45818.24224711923
53974.00000000001,54022.440968072595,54026.69875089325,54027.26036155301,54022.93495920812,54023.56964155476,54021.14031596918,53994.02120023549,53987.8339179446,53994.81228588306,53981.78262976601,53957.22714868912,53965.862023112095,53998.285030839106,54001.267613861775,54000.76531501726,53992.45975798495,53973.755552262,53979.70262412616,53985.04789547282,53984.55907211492,53985.680426706764,53983.667489213025,53980.88122781204,53983.638447294594,53996.0,53996.634605772786,53996.39659390386,53987.703813263935,53967.298670771524,53979.34726979212,53993.10463486864,53992.56113300731,53995.07556117746,53983.89255960924,53974.24519033357,53979.896863724,53991.87286739737,53991.68488405504,53988.645163821755,54000.34483291337,54006.691246176764,54002.89522574212,53993.8931351905,53994.670327682004,53996.89448830642,53988.284439173534,53990.21542854323,53982.737822809126,53969.69145949029,53971.0,53971.722878297485,53962.96091514509,53951.012975604164,53968.1933231535,53988.10467666167,53985.91656423414,53986.7985092102,53969.46681108781,53953.78880052627,53972.83613790336,53987.69665659768,53985.87127412247,53986.411578393076,53970.42712885501,53954.38112072359,53981.43713042552,54002.92782565363,53999.68095940428,54000.18834762398,53988.95273445757,53983.80131901724,53987.3354181654,53983.600549332215,53985.742901357444,53985.0,53980.25234645462,53980.416537684556,53977.239035670515,53972.794484764905,53974.58675943854,53973.90294154842,53975.999598523464,53979.8139082667,53965.80809318584,53955.60985164702,53958.91568848691,53957.83983795804,53960.454467764364,53962.752002778325,53953.36050748436,53947.423948584656,53949.750679641584,53948.76639813673,53949.86868350743,53950.5314897687,53949.21454865142,53950.85927801125,53949.289027603416,53950.31497735633,53948.0,53947.01045235105,53951.984816724485,53950.97818035036,53953.509101751384,53950.089379229736,53942.84996135662,53942.86342898376,53944.67235230824,53947.62945936048,53943.69729440729,53949.88804508321,53967.28217278426,53967.325397283865,53947.9118267427,53939.572035937126,53945.9361661971,53940.38651564964,53940.704451887956,53940.324652686744,53936.19531175035,53938.987523764335,53934.15547220177,53940.451427183405,53938.32135895603,53940.0,53958.54060300469,53959.40557597018,53962.93868795818,53952.57724539506,53940.15352641268,53940.77840851439,53931.742382405595,53931.337961424644,53928.48974009397,53939.404780586025,53955.2657272097,53952.76790400589,53954.80806292227,53954.63976093555,53957.119802823065,53946.78608094545,53932.375573903555,53935.61721605359,53935.10501704214,53934.85151004562,53934.75780967107,53935.844269240246,53933.563320791945,53936.8619505759,53946.99999999999,53946.84149282243,53948.62917116395,53940.04453558553,53934.743777726806,53933.36832743933,53922.67750842407,53922.709226009334,53922.87874318476,53923.72744904335,53919.15978046523,53927.00087602192,53944.83227630451,53944.109779324885,53945.18446631168,53935.88676021747,53932.56524811308,53927.61333733919,53910.60060919389,53911.87518821194,53911.31786368329,53918.464693790665,53917.22053686604,53929.98573742902,53960.26794996115,53957.00000000001,53958.89870115483,53924.77670245139,53892.376680844434,53916.64347103876,53916.79562390695,53919.52524858743,53920.649443818285,53912.75950496277,53916.08606994853,53913.422714643915,53924.402030736244,53919.727443048934,53919.251717627405,53940.59489699405,53945.34653211357,53941.62616679969,53935.2990583434,53937.668689948216,53937.162226031454,53940.29739567377,53947.02428997726,53934.334418443665,53926.287039035225,53930.88439438985,100.0,115.0,21,1,180.0,78,24.07407407407408,116,68,59696.00000000001,59673.4373264146,59687.23154000784,59680.759344080834,59710.86437178224,59710.439445729855,59565.08844691564,59606.54066861869,59631.59207864532,59620.49656664747,59672.88514774309,59716.58837441464,59691.43455006125,59530.31864833778,59506.56873366069,59529.93911552658,59501.755039176336,59561.25279034564,59748.6278182602,59694.5763088333,59404.79831238037,59625.42792617224,59754.45901783622,59617.58465468849,59718.83790677593,59645.99999999999,59636.994357331016,59557.15330373682,59547.69208988225,59795.96817505305,59653.68726766378,59683.89877203629,59738.498045750894,59443.11529684337,59469.9752845243,59549.870073375954,59504.72506766692,59604.69915754932,59631.51330504953,59429.21556725389,59397.143496449295,59506.29984844236,59459.66945361047,59558.97397221979,59520.91528240322,59294.94373220162,59329.70953385442,59411.28870843775,59450.3598339497,59521.424384866776,59524.0,59381.14746215859,59425.92933709398,59610.70074436288,59625.16116157839,59785.78559769523,59795.00698039364,59690.93383166671,59763.86133730264,59747.23351452304,59892.81467869622,59922.61497266504,59824.463922642346,59865.5731559083,59811.44774582835,59853.93693715,59714.79484735871,59590.30347751786,59754.23111996885,59771.12989901556,59804.52918117061,59628.56162990484,59463.55326745202,59594.91183481405,59504.68280150666,59607.0,59688.41270883759,59311.4931898044,59210.20104851504,59319.96932359677,59337.381690893984,59457.21441134909,59502.10644999233,59520.22183575831,59640.91030322588,59438.49362491906,59165.34931053783,59305.12490161668,59374.9759032306,59433.00001602107,59545.38671568746,59463.08766072586,59615.30535150549,59502.792974208285,59095.396573563776,59205.14285455175,59277.98333246157,59290.48874764152,59449.23808094936,59469.46170720886,59632.0,59646.785811220754,59549.45965412946,59656.154407071335,59640.68026224506,59639.44505036675,59743.13304803369,59841.87696585847,59818.2385216143,59638.05464171121,59580.42289539213,59574.9302388716,59573.10335229943,59621.55566224967,59646.00961152082,59692.12359668293,59739.78178697748,59668.57805231929,59537.03052074461,59613.90548361767,59645.32817068896,59627.4138228889,59768.24390011986,59604.5772730328,59472.629015424354,59586.99999999999,59579.90632225163,59645.36374953169,59687.45088115606,59710.048598865134,59671.71845929496,59508.54380546177,59551.744956249306,59615.38862091669,59628.83021698374,59697.75709676376,59668.21334259208,59537.32583604392,59432.93454828694,59440.16840692495,59503.99764402155,59578.33276503929,59597.491296297005,59663.06658026279,59647.7917523585,59451.30532959728,59473.82525888364,59537.01853323285,59537.00965802425,59591.1183852648,59614.99999999999,59642.56995201384,59438.74903955626,59336.00172640232,59476.05975899639,59472.52846617362,59552.17584735753,59657.17978103331,59603.68954637024,59499.88692812285,59445.7154906578,59455.16871241609,59512.06723279528,59576.069558136594,59578.30915001878,59646.07493249586,59489.1337188609,59329.26774526996,59506.98149828324,59541.69466077344,59609.43187205354,59699.05925015296,59743.20998962282,59645.024608125794,59386.90613616481,59585.0,59578.1271569629,59518.090831262416,59735.04642838904,59505.69899667565,59433.88706383382,59400.81865423718,59346.01798578535,59486.65143941562,59457.68926813526,59604.42815811628,59443.4812994623,59171.78103722709,59273.8652033257,59298.57642146969,59381.61610861734,59405.39448791182,59497.528241831504,59461.406532799694,59220.08752257065,59338.10580023401,59394.7804540714,59413.76263665122,59529.6047931987,59599.669216760885,37242.00000000001,37269.36301806126,37222.06705101672,37255.92437035671,37212.27758381648,37227.131395476885,37196.50349966527,37189.98953743532,37212.62893530591,37180.95262901676,37207.06446749783,37201.98379835847,37175.51558153191,37184.37377197541,37182.32624362734,37166.58229974953,37165.14953171776,37209.27632106363,37201.17417707883,37149.08107411085,37169.83918418929,37224.78327472437,37226.567287434125,37188.2790651831,37166.37749381512,37151.0,37130.27764538989,37138.485631661446,37201.08781205645,37233.07911371004,37204.1435414384,37193.48950952268,37157.614164029095,37122.25830286725,37129.46030199658,37124.709298817725,37136.370368793534,37130.94471630848,37087.92042455936,37080.48728589012,37087.63972188191,37085.18055912472,37105.74378104733,37088.486120214286,37023.10684592056,37018.083896250384,37033.877487968544,37037.22014299116,37060.01206341161,37030.47554278781,36986.99999999999,37006.47029860369,37032.52903907833,37056.19991577093,37097.55417720344,37097.01165893373,37084.54715381314,37112.1843337094,37110.5557003023,37105.715032517786,37126.21193694501,37128.13483485562,37124.17594093485,37104.954341246994,37098.71183656858,37095.1397063777,37050.2031941609,37035.861461334505,37049.74081460733,37040.61339831954,37031.04009921855,37008.90978276494,36989.66437529359,37020.71318200655,37039.81154483445,37034.00000000001,37034.81162455561,36976.54874923807,36943.26711703456,36989.32242165942,37002.819802166414,37014.01701854005,37024.46048028512,37030.947287656425,37046.03707355087,36979.38174237788,36939.20351822488,36973.741042801565,36983.28360731328,36996.54513306711,36982.29655437493,36976.58417087668,36974.7349735825,36898.1533705385,36883.4836060531,36903.10039511343,36895.70702840025,36941.42696046551,36949.15297461338,36947.08030010308,36986.0,36942.356533611564,36901.88907330936,36956.49774222256,36969.85444430763,36948.63184286068,36971.39562060688,36986.90692049137,36978.707242068296,36944.52517781173,36920.86196874815,36927.17630507042,36931.54163601565,36935.40024450541,36933.401583456245,36960.37444651336,36926.775863208,36876.6149219537,36925.60905621627,36912.885649686265,36911.43701314048,36942.224480622965,36928.1742139731,36916.75527007673,36873.73002586654,36910.0,36914.31851308586,36900.33786364991,36955.73724718125,36884.24409189964,36867.69950573901,36887.94343190962,36869.58358679202,36903.36431090911,36899.078532658576,36925.80743897653,36884.03856124786,36824.19552312308,36844.86412017728,36851.1477536084,36876.848172953,36864.40996391727,36899.72090079543,36885.19027424386,36806.42385281076,36850.13428294686,36850.27709654791,36849.76648854851,36863.11628161714,36872.77102883999,36885.0,36815.47514248976,36816.18936217294,36829.436089277566,36825.7205963986,36836.5212547324,36853.133485303566,36887.90973570968,36814.93426873166,36798.519578532105,36833.20026703666,36811.65552447174,36834.11436539618,36853.89498461134,36856.04297410533,36805.44173393922,36786.39006690921,36805.3086088322,36808.30907675995,36848.87866747015,36846.53224589646,36870.19244928865,36852.24118229974,36797.64275905387,36828.56913206592,36811.00000000001,36818.02070732045,36847.46932909109,36846.59587990522,36817.54011528482,36763.27006018561,36790.66919232483,36783.8776066014,36796.86132626524,36839.43700597539,36776.873383796265,36753.64179104432,36741.29637439609,36740.12904574708,36778.493281854775,36765.96055476526,36806.18586583735,36797.75129491584,36705.145720588014,36756.984705905335,36769.60134922648,36744.00529602921,36835.15163041959,36771.47269055811,36879.15384282708
