ir_0,ir_1,ir_2,ir_3,ir_4,ir_5,ir_6,ir_7,ir_8,ir_9,ir_10,ir_11,ir_12,ir_13,ir_14,ir_15,ir_16,ir_17,ir_18,ir_19,ir_20,ir_21,ir_22,ir_23,ir_24,ir_25,ir_26,ir_27,ir_28,ir_29,ir_30,ir_31,ir_32,ir_33,ir_34,ir_35,ir_36,ir_37,ir_38,ir_39,ir_40,ir_41,ir_42,ir_43,ir_44,ir_45,ir_46,ir_47,ir_48,ir_49,ir_50,ir_51,ir_52,ir_53,ir_54,ir_55,ir_56,ir_57,ir_58,ir_59,ir_60,ir_61,ir_62,ir_63,ir_64,ir_65,ir_66,ir_67,ir_68,ir_69,ir_70,ir_71,ir_72,ir_73,ir_74,ir_75,ir_76,ir_77,ir_78,ir_79,ir_80,ir_81,ir_82,ir_83,ir_84,ir_85,ir_86,ir_87,ir_88,ir_89,ir_90,ir_91,ir_92,ir_93,ir_94,ir_95,ir_96,ir_97,ir_98,ir_99,ir_100,ir_101,ir_102,ir_103,ir_104,ir_105,ir_106,ir_107,ir_108,ir_109,ir_110,ir_111,ir_112,ir_113,ir_114,ir_115,ir_116,ir_117,ir_118,ir_119,ir_120,ir_121,ir_122,ir_123,ir_124,ir_125,ir_126,ir_127,ir_128,ir_129,ir_130,ir_131,ir_132,ir_133,ir_134,ir_135,ir_136,ir_137,ir_138,ir_139,ir_140,ir_141,ir_142,ir_143,ir_144,ir_145,ir_146,ir_147,ir_148,ir_149,ir_150,ir_151,ir_152,ir_153,ir_154,ir_155,ir_156,ir_157,ir_158,ir_159,ir_160,ir_161,ir_162,ir_163,ir_164,ir_165,ir_166,ir_167,ir_168,ir_169,ir_170,ir_171,ir_172,ir_173,ir_174,ir_175,ir_176,ir_177,ir_178,ir_179,ir_180,ir_181,ir_182,ir_183,ir_184,ir_185,ir_186,ir_187,ir_188,ir_189,ir_190,ir_191,ir_192,ir_193,ir_194,ir_195,ir_196,ir_197,ir_198,ir_199,red_0,red_1,red_2,red_3,red_4,red_5,red_6,red_7,red_8,red_9,red_10,red_11,red_12,red_13,red_14,red_15,red_16,red_17,red_18,red_19,red_20,red_21,red_22,red_23,red_24,red_25,red_26,red_27,red_28,red_29,red_30,red_31,red_32,red_33,red_34,red_35,red_36,red_37,red_38,red_39,red_40,red_41,red_42,red_43,red_44,red_45,red_46,red_47,red_48,red_49,red_50,red_51,red_52,red_53,red_54,red_55,red_56,red_57,red_58,red_59,red_60,red_61,red_62,red_63,red_64,red_65,red_66,red_67,red_68,red_69,red_70,red_71,red_72,red_73,red_74,red_75,red_76,red_77,red_78,red_79,red_80,red_81,red_82,red_83,red_84,red_85,red_86,red_87,red_88,red_89,red_90,red_91,red_92,red_93,red_94,red_95,red_96,red_97,red_98,red_99,red_100,red_101,red_102,red_103,red_104,red_105,red_106,red_107,red_108,red_109,red_110,red_111,red_112,red_113,red_114,red_115,red_116,red_117,red_118,red_119,red_120,red_121,red_122,red_123,red_124,red_125,red_126,red_127,red_128,red_129,red_130,red_131,red_132,red_133,red_134,red_135,red_136,red_137,red_138,red_139,red_140,red_141,red_142,red_143,red_144,red_145,red_146,red_147,red_148,red_149,red_150,red_151,red_152,red_153,red_154,red_155,red_156,red_157,red_158,red_159,red_160,red_161,red_162,red_163,red_164,red_165,red_166,red_167,red_168,red_169,red_170,red_171,red_172,red_173,red_174,red_175,red_176,red_177,red_178,red_179,red_180,red_181,red_182,red_183,red_184,red_185,red_186,red_187,red_188,red_189,red_190,red_191,red_192,red_193,red_194,red_195,red_196,red_197,red_198,red_199,systolic_BP,diastolic_BP
53465.00000000003,53481.28790124356,53021.54462893034,53244.859817248725,52954.341763488934,53349.00508570192,53214.617772952384,53132.63277141217,53228.182842821385,53078.39350350653,53252.902064032205,53209.54787655663,53100.11730702587,53080.90813616805,53317.92867800344,53219.29918884114,53010.428547698204,53106.03160013006,52933.8955890755,53095.03920681651,53079.488710702826,53019.34332128566,53185.179262097714,52949.08044529427,52892.790918200306,52992.672999208335,53175.555994258,53040.59464957614,52753.91681148108,52839.38531919734,52787.79172951858,52771.73071078671,52790.24106310375,52972.680218701214,53101.34326609793,52987.905419768984,52867.95226551526,52747.521878086714,53000.84057388807,52788.69261499164,52802.38596295216,53265.39701308493,52732.58859423325,52679.98807974416,52794.96897194691,52520.396581152185,52983.861786436624,53036.636447615165,52865.678029385796,53072.04544972905,52989.29626130615,52852.41746203853,52693.80563866915,52549.62235485034,52615.741567467376,52781.617794475715,53053.24882618515,53118.28091272549,52963.30198010305,53088.80234092489,53237.835639096804,53184.80020274936,53148.788014281934,53107.88475010413,53106.20942541963,53049.65227473524,52892.12209961702,52625.22255761522,52510.006991669274,52858.148167438776,52998.63387450811,52788.83658406049,52834.84175226194,53049.83689269902,53177.21743114685,53193.68629625791,52938.41108246281,52647.31215878822,52805.50363006727,52927.69405646759,52834.82108676931,52972.8335294447,53062.08933525049,52924.97703491787,52760.76373035304,52723.84183542826,52838.551911538365,53021.172892304734,53046.00918045539,52880.324692446215,52861.08971503103,52874.88597357561,52760.95003392417,52595.79026562886,52619.22909506447,52795.90666480799,52725.41802367424,52664.5842149734,52656.72744531912,52654.8563423614,52641.8872036295,52564.42335236338,52813.80112817947,52787.21357753218,52508.95219225599,52586.61909765966,52592.635165906795,52756.98449925101,52709.87992036576,52390.38354609869,52626.29622258491,52553.98212585428,52420.89485230678,52551.86891288019,52136.59920995063,52249.342045410725,52494.712259928965,52352.30125482406,52452.504264670024,52138.24571754712,52283.554793024996,52370.26192578983,52050.67238493675,52451.8805387449,52130.04989641709,51939.29490832762,52251.39369985064,52093.54200563513,52294.139429511255,52179.2805188635,52116.00890987369,52329.81867932328,52559.539256259835,52564.467402669776,51978.071974668215,52223.11820989917,52412.17588896184,52328.082982382744,52351.025141531056,51884.360540046844,52025.717077074594,51979.22894046258,51700.218683383246,51589.092248321445,51577.275834106134,51866.12255421875,51719.06910279841,52016.00958938972,52043.72017402257,52025.74582005917,52270.620581111754,51873.113077619906,52556.726802985024,52370.31770693867,51756.74447906598,52382.22257566793,51620.02253510901,51449.122543032514,51893.045877491786,51268.6223996549,51430.07559218028,52020.79116279414,52346.39968601103,52509.12846822315,52725.69556456545,52797.09567012859,52583.148713256516,52823.7525728725,52880.73119304822,52814.69592467586,53052.49965129514,52854.298353414335,52649.28007660689,52550.55958501501,52240.94386970285,52274.94701337189,52241.25574598707,52119.54475789157,52188.46485054916,51899.97370137494,51871.34797560527,52257.42535419749,52640.07526683066,52657.299071496825,52236.713188880945,52292.77226750131,52375.54598506027,52259.04979180391,52033.913759315794,51755.443754071806,51742.595769309046,51551.915175119975,51688.538091633905,51668.54307783512,51680.648565227304,51598.14993348158,51214.2952084005,52088.077147667165,51488.32294937854,51220.00698322176,27263.00000000002,27248.182327432005,27207.16142220846,27221.138090407443,27208.419976908393,27220.359351058087,27224.720832227933,27208.59926278766,27206.533107464464,27207.064896361266,27206.71409275228,27196.550775969885,27215.854788596556,27215.30874491744,27211.08018236843,27229.526050050918,27221.596706510158,27215.118149234746,27207.22907349879,27212.60161066075,27201.23596842367,27169.811086409623,27181.64297210891,27191.217545015275,27191.7441030422,27224.172377088515,27242.808238478443,27173.89111997941,27086.391488172114,27104.899186622526,27210.781115523194,27247.9450025695,27198.789832309296,27235.46874426144,27269.445004748195,27235.882934023994,27227.987390590613,27212.3052335638,27222.569745759363,27230.52285899436,27277.476321570077,27334.230716858227,27276.629424456423,27256.680260814926,27228.68687511841,27219.747615600358,27299.393490633658,27293.53013687349,27324.47943221062,27351.80398905493,27288.481443126468,27272.158131893222,27239.84130219359,27231.31298852816,27258.386800868462,27284.00169327333,27350.407775711155,27351.044759677843,27318.907794772516,27329.360487990856,27342.454268747246,27352.362819385213,27345.439148814712,27345.146504838845,27337.067977066697,27316.236177185863,27299.01306169707,27263.80615330871,27272.424102184672,27314.277486825427,27327.27273449834,27320.06328671693,27322.90051664902,27372.180446484275,27410.767616631125,27405.32335009271,27361.996676522172,27316.909122204386,27341.105144866186,27356.14177442882,27359.717442651978,27389.47341929356,27378.630559058147,27356.124072050996,27335.494164035565,27333.677341465343,27375.624238513265,27403.355338621095,27398.108357824283,27386.232709176216,27388.168981076436,27378.002760880805,27355.555091713653,27356.33548770619,27366.97437107292,27369.91238679209,27364.936470624434,27351.818136391114,27331.463034996606,27332.263858779326,27344.66408974712,27358.63157264978,27376.49988309598,27356.837079557503,27346.008765606955,27348.763819157615,27345.043598945165,27360.0474311576,27347.280075887385,27342.2432706238,27349.24337376719,27346.46292616671,27344.32226354313,27292.712869186213,27276.522678221663,27311.518250303096,27308.565436801622,27287.55933379101,27270.87745074919,27281.917833115,27272.117488697117,27258.959347179676,27304.63432586594,27302.051781125203,27269.514091322497,27271.9825246918,27278.44334257007,27301.86363733124,27311.43368233585,27299.913748485,27292.566037641926,27346.84441795827,27403.46962034401,27337.422773001163,27323.53870220067,27340.444923137733,27295.89600257785,27315.77846519158,27268.610081091356,27234.977429246,27305.61912289777,27280.19634556037,27218.433258425794,27208.279702852615,27237.58867464599,27252.268091167087,27275.596482624493,27292.72627470275,27264.120951651243,27316.576575601088,27334.772290950692,27385.73726046564,27426.965939922156,27323.474338549102,27405.307672405957,27344.352243382247,27134.921098089293,27258.376301647346,27287.22120609025,27183.66648130343,27266.878446508494,27379.902432140465,27415.776099300787,27445.96613527387,27486.730721125798,27473.24559216844,27483.958222480927,27475.32363844132,27442.552980065815,27483.651148149173,27510.401942126635,27501.959967763007,27445.949675599764,27407.039806004406,27404.791293294995,27408.67097720349,27419.588974731687,27374.053493649168,27371.03148543184,27346.548160394057,27336.530127515267,27434.124637724562,27448.368112256514,27408.32367404346,27367.230329022346,27400.48831663635,27445.645903668446,27399.262263415134,27370.151424096402,27287.560104672313,27273.11859808873,27284.864827532798,27238.849461974278,27305.23219359697,27289.67981049052,27243.852603464624,27283.764740559203,27269.051699963933,27225.870816140865,27214.390033665837,122,83
54755.00000000003,54768.967582338984,54754.084951623605,54779.76032608069,54772.96035372566,54785.15324312605,54785.42378192459,54802.86412231751,54813.76748948547,54842.08575103475,54867.38978595813,54865.507161721885,54892.27617931383,54893.55465513969,54911.00440712189,54939.43794126409,54919.007818249775,54930.91483927192,54950.89070535604,54945.478617614484,54957.0,54973.65538271479,54976.280508734635,54990.984014743226,55021.60025082678,55020.50498982884,55036.0254977637,55050.60221484746,55006.19535034732,55031.238331554894,55080.573215874865,55077.12600159451,55105.37458975856,55101.76775759373,55109.99686917886,55136.512866995814,55113.008582622504,55149.861245037726,55090.45279156332,54989.67764954581,55090.00000000001,55127.640149238105,55110.51352975987,55159.63768396233,55087.47004080376,55043.52159889581,55129.731464691926,55147.620570498344,55139.96402465009,55173.52727293912,55099.12257762049,55057.95946244239,55152.95181633128,55144.00968034511,55142.62309981387,55165.18905741179,55081.08948005235,55093.11108795021,55137.51573649698,55159.20965605313,55158.00000000001,55043.44579095771,55046.4376109231,55125.230789096226,55126.223098599956,55165.81585553269,55153.91148197783,55065.547906181215,55064.73606238225,55125.97680857578,55149.84794546239,55177.31446064961,55162.62151701311,55079.57327446245,55097.038224281045,55161.27170879593,55173.963889906976,55192.211316041954,55178.291557933226,55151.16194036449,55167.999999999985,55191.40079671783,55206.07692734502,55217.48192724352,55200.23604292449,55197.483175775895,55210.383788659165,55217.538228032914,55233.23823038591,55144.94122223917,55114.11997460371,55212.718500865354,55206.77937389831,55237.11400657474,55253.77709895978,55183.768303408615,55204.469838964375,55213.20364577527,55249.85636517213,55238.15031625055,55134.0,55188.46230411632,55240.108906397945,55236.63971130515,55254.86365785276,55200.74597758724,55224.62917031587,55243.38524490564,55227.91161813907,55292.20163411356,55122.89084373099,54997.552567951,55170.90394425794,55164.2808665653,55193.27471616671,55277.974556540925,55091.043021880774,55082.41023261892,55214.73312115389,55214.53903586696,55221.999999999985,55126.17119622259,55101.18667811204,55194.33773496062,55147.11389897395,55246.99966336074,55185.47654675924,54761.48165762811,54869.72809892696,55122.776167463,55063.377328813825,55241.82942721517,55103.32850126606,54795.496873881864,55037.722156156226,55170.164010525805,55145.412638955575,55193.773989711415,55052.38970750419,55083.006215527654,55149.0,55150.72576969746,55267.827094371234,54880.1803813052,54702.37890731129,55105.0112368375,55131.927181212835,55171.37876768775,55011.658158344515,54768.974781689,54980.01267169963,55018.769070250535,55185.00545193334,55134.93340763908,54893.170375292895,55054.65743003575,55123.02489098679,55239.14369226262,55107.42083975905,55012.04222153782,55063.99999999999,55093.30974071262,55337.8661307648,54112.92889824244,52820.784885057416,53260.27167278305,53730.449976167794,54213.77351312705,54534.54219895798,54592.72066716552,54772.313179195,54748.23911900877,54868.974247567916,54847.290900392356,54847.44063553274,54896.07628455304,54821.6807378429,54933.00324884216,54855.680085610256,54884.12351494076,54849.00000000001,54780.41348896497,54659.70384671857,53885.12829015005,53742.92705528836,54156.08534654432,54262.346465287286,54254.19563613346,54049.634631786386,54413.37243596197,54816.839729051346,54710.92569694768,54838.75002000094,54832.24846988855,54814.89249011365,54867.14406042345,54831.91222674579,55002.47252990351,54864.731520639936,54643.09388830576,31111.000000000025,31132.194629546982,31091.971336551043,31111.844690731847,31078.566093892907,31094.653564527944,31093.041824021922,31103.890627376262,31101.904465208943,31085.762619650854,31092.881280238395,31087.12463206693,31101.35155006278,31103.484773288314,31101.17216886305,31103.783527529184,31094.454649825013,31098.637847355887,31101.046514656573,31102.23246807226,31098.0,31091.47418736171,31089.274103334206,31092.88414726261,31108.74393112131,31115.719662393854,31115.830125544246,31107.833999974933,31094.109944414427,31088.701192521617,31093.013433713735,31106.50882571314,31107.404419344097,31098.732931502083,31100.51641323191,31101.030623284885,31100.54856233072,31110.390459784885,31101.117705853532,31081.136089307758,31086.0,31090.404420162926,31099.780997504797,31101.559934108966,31078.501528201006,31086.239248376165,31102.585592389543,31102.70756393451,31109.735070270886,31094.888253120283,31083.486929385916,31099.52782886169,31093.563513266603,31092.88137882565,31104.144420446675,31080.560288379787,31079.986059941493,31096.70077093259,31086.10176605844,31096.264433512482,31097.0,31074.381646280875,31080.388703023727,31085.552432432738,31076.865855332813,31085.7109072147,31080.30761618187,31052.838960106368,31060.536793504576,31074.539150870918,31068.885058199863,31079.335604191936,31070.62231713118,31050.744294905788,31063.916975511915,31069.350346754174,31058.07734024435,31058.366687865422,31053.56650358717,31042.77494154764,31043.0,31044.20913073312,31042.579901571647,31042.11490823332,31049.45972858299,31051.30303407231,31037.673662910183,31037.69066675881,31035.075678509245,31025.532683788,31036.11490250962,31042.965138456835,31041.548858650785,31033.092746013604,31019.211425267113,31031.49896994704,31045.476888893754,31035.737261201175,31035.383995854114,31027.716247324028,31011.00000000001,31025.27973111654,31038.906146169436,31039.99901377647,31024.24534788319,31004.897010670626,31022.670676169168,31029.321844018657,31026.515041174433,31012.00583810619,30979.881741207988,30981.829384366865,30986.082734644446,31014.48427359206,31027.3998917141,30973.439433346062,30973.175696479037,31003.03717501709,31000.049210673464,31006.71630550935,30996.0,30955.289479785726,30959.464902023916,30985.10440152853,30972.127158233492,30991.463736019326,30964.880416547556,30889.194482348972,30930.50023803066,30970.726911410104,30972.360545783256,30983.466468972623,30937.774161308764,30932.82691737008,30961.708897771165,30973.79276377306,30994.76979685825,30943.01043494442,30912.510132833286,30961.420864593056,30966.0,30976.901097289887,30949.14474631428,30881.09307726877,30926.12999126087,30953.513706543134,30966.817480236296,30977.843315573304,30869.12629210055,30867.361582506186,30930.243424163313,30924.00606554722,30946.58658377252,30905.279074014114,30888.6612419602,30917.863887700845,30906.897950837083,30936.26401987687,30911.211648009088,30875.374824311155,30897.0,30918.063308488763,30861.59400331826,30536.673084142796,30279.917522091106,30422.48084785729,30608.399839353042,30690.64588392067,30762.05631017775,30801.882699401795,30807.887275354165,30802.97130568671,30814.977140907282,30796.13256231707,30781.4185831972,30777.12890759823,30755.9268113931,30782.611974011637,30768.961942074504,30751.3658968182,30772.0,30723.697699010503,30654.21706823075,30580.753730667042,30530.300546875424,30507.65738919091,30560.35022737046,30619.5204638187,30573.634713601718,30726.078368428945,30849.143332725667,30769.1754349243,30814.321041611423,30766.920468716886,30744.651785977563,30805.38125973353,30786.73259946552,30850.532346768076,30755.787615797864,30799.954928256586,102,68
61920.00000000005,61786.6965458358,61759.189169664794,61941.177430932396,61670.94067357085,61621.777218330375,61654.5336496749,61783.93170761953,61851.71869615821,61724.79327779885,61729.268535629875,61886.12313348488,61897.06577234283,61703.547311178765,61692.48702655743,61748.34028464958,61744.53986466585,61766.634313539005,61750.0434046183,61802.722909907665,61827.864638667284,61643.07424120108,61562.53044222318,61746.35803780771,61735.56801531866,61663.95064472164,61689.947779502756,61575.75660000572,61584.23728712848,61558.40237090809,61449.23627920885,61592.21468498155,61590.07492316824,61318.60643724455,61412.389985189126,61634.757837724115,61589.66759972183,61775.321261117904,61793.267979388846,61693.75881844893,61908.34630083551,61754.55827389907,61588.65089617522,61604.86047572688,61405.44097216441,61178.25643097221,61196.791081487536,61475.432725726656,61454.40308583049,61440.78935756277,61535.5649406413,61508.59660584729,61579.01916660956,61338.11503954719,61381.70769959123,61709.52039198519,61556.464025746325,61504.358374015836,61634.21415342767,61712.808648848724,61714.12018381051,61603.61173902738,61581.872801112564,61740.28150273805,61750.63082741703,61514.520383265924,61616.745319180656,61724.96573827293,61596.118987074915,61603.140480470014,61564.904169337846,61602.46982204255,61599.54799411845,61404.140355681055,61378.92419393584,61542.62284369234,61511.49048906644,61304.826750805274,61374.17740874764,61476.570754593035,61396.391295488495,61299.84316422883,61273.085534563754,61389.238180404456,61399.17944687547,61288.265385849765,61326.226096147846,61540.72947900231,61462.70437596288,61228.45861112334,61376.0366681308,61412.59496215973,61317.21274651353,61285.383755610914,61260.15028802548,61367.38770426257,61229.72559522365,61009.40490051248,61037.94717351915,61099.26350498903,61048.69024663674,60982.29483022142,60987.06469857708,60991.50374395441,61049.286602439555,60945.17159455962,60912.68922005631,61102.238521180334,60946.280620141224,60798.45959993379,60939.46006202466,60996.43052271305,60905.130335129994,60836.33142690592,60881.17590624147,60970.580874991545,61009.37363937593,60846.375469566614,60884.05827291273,61067.26347285665,60911.21291297262,60849.9930402236,60912.93538317524,60976.93391131156,61054.647345017576,60901.12324767563,60856.09992557616,61044.64453568456,61014.47247131867,60827.45253945077,60881.62782033953,60973.62801064154,60944.80717662623,60848.056640527575,60731.2761014021,60902.12214904146,60954.89904416078,60751.30812557054,60800.62004339409,60910.765056733595,60928.703794359324,60878.22879797459,60780.340439947046,60874.644787405356,60990.06428594236,60817.765261672364,60734.676798754575,60875.07322148164,60920.7773153226,60959.701998651086,60861.27446215083,60838.30198623692,61028.16300466441,60924.20832286425,60837.745062380964,60940.298861016985,61013.05147609546,61052.40827689446,60943.78378334336,60887.66368911597,61009.92972565173,61004.19407758044,60811.581164597155,60863.86758208252,61007.33577872935,60989.14915116894,60976.37601739031,60881.30383627245,60979.22641188299,61071.82833928213,60894.069367183096,60906.26124004925,61032.298917401815,61033.29990678484,60907.557398859,60877.97140922762,60985.0191666569,61056.83969656097,60948.33176245952,60782.59978267174,60979.49189632279,61046.716223529475,60924.0050195785,60940.20422734267,60956.67084314295,61122.29114177955,61055.28469344996,60903.93644505842,61001.33711596531,61066.45914772619,60978.225894084,60852.7152975289,61003.80921488461,61051.422985522804,61050.82185484186,60940.116255670284,60835.00640851374,61174.30071960359,60879.766867046914,61023.48801548211,45001.00000000002,45042.82306135901,45110.3019872621,45062.75325685634,44917.72114935683,44975.857968528195,45027.46762088625,45094.00730621323,45100.62638079897,45093.67035318837,45143.22334734609,45145.218643178596,45131.16029045444,45040.23067580099,45069.97256909982,45132.183929235194,45092.39117176539,45155.08417937615,45159.99343584648,45156.53941874402,45167.46229763381,45083.45425992297,45098.79938857093,45143.98254025199,45160.15739889137,45158.24198275398,45089.90945637622,45077.993704821085,45063.52176765965,45041.72262799358,45079.51768627307,45065.44739436555,45027.300757229634,45003.07862831844,45091.691513242724,45179.5802373734,45136.0204518186,45290.28231288343,45327.742041459715,45151.672728177284,45232.16920816129,45192.2589510912,45047.472894266655,45074.1500157511,45002.160260862736,44891.643378905545,44944.09574975789,45055.637341241476,45001.388619137404,45031.719674841675,45147.90722774657,45076.37762333283,45066.405256505124,45047.25590618631,45083.38346219741,45181.04351936296,45080.91277123258,45107.35720479141,45194.113827479494,45155.506992062416,45112.278020209094,45112.86202520718,45198.59056967705,45190.84323622026,45147.93396494031,45141.01812534033,45129.59467634402,45165.692509197615,45135.49840886964,45124.85928276813,45154.149122860545,45108.34004855567,45074.04312470894,45066.474315343985,45080.621591862146,45115.551179430375,45081.81282716386,45023.5288377018,45062.12049814472,45090.5396749511,45032.535368270845,44995.123013515324,45009.99514761461,45012.78329354454,44984.125413952956,45030.19710194223,45109.11178924819,45119.78742484029,45060.585321148596,44995.06229440401,45044.27839472288,45055.71936734424,44988.50682345956,44986.930494443775,45006.09017762187,44968.21365151604,44869.312929014726,44849.718476143324,44813.26552655696,44783.80756994692,44848.91145502649,44725.67343313111,44694.82850343194,44815.25264328996,44732.094978942965,44723.4238814047,44795.39356501922,44763.116275483444,44721.47406145991,44694.00772436692,44723.44165582443,44730.319200899045,44673.263725957506,44678.82908930731,44727.157751433224,44724.75373039564,44694.56939880474,44701.963497835066,44735.098374109766,44741.65664517643,44710.95684364128,44676.44093659925,44699.54304848604,44740.923878930735,44706.97247083364,44693.8933163145,44725.13778061956,44731.13611668615,44728.48558444044,44684.796576240136,44709.84291491786,44742.56912442445,44639.610523522264,44613.74828929018,44664.414459373176,44688.84511705289,44690.177834622795,44644.99811225879,44663.75796400312,44706.68664720272,44672.21384181548,44648.88428333206,44678.6276059317,44690.67805699978,44678.400090921525,44650.37388307294,44630.73732696766,44691.23101410778,44695.03526170059,44640.45729987958,44678.30018241351,44713.7969708441,44731.034432538705,44723.08581290175,44689.91645368605,44733.24955045145,44753.739813100015,44718.99790355768,44718.768748619026,44709.76580395066,44707.3633584954,44720.51045183045,44688.173431175295,44703.03990631892,44736.263909819434,44690.31288287435,44687.72529357291,44724.30573511369,44731.06709927326,44723.340088566256,44704.6323375476,44716.48150901889,44749.0537352572,44730.594872720205,44680.307616470775,44716.21142026104,44746.03451847991,44694.49414946833,44684.64182467775,44696.84891308424,44726.25477190329,44731.195759614195,44695.65300205964,44720.69747009847,44765.64179938335,44763.835496907406,44718.41035659224,44713.39190372901,44735.53764800743,44748.684271601196,44723.35774742633,44687.38517903597,44752.51771728738,44723.39611865595,44683.44266942942,44709.86659869652,44697.65159787812,44764.138740092734,44684.514943364564,44734.47769363579,141,93
59870.00000000004,59800.345441618636,59884.68807187686,59866.95154384444,59968.04064089579,59974.6451908697,59951.86938416648,59907.08795578805,59934.185976670444,59977.52065845868,59955.654456186836,60003.17458651239,59965.2010008524,59917.78142648719,59954.515513434315,59964.2814437448,59971.91184563518,60001.25958326579,59974.938692877826,59903.98745296407,59942.18938600482,59964.40101250692,59946.32633551206,59988.11099790449,59944.19411192614,59900.13869417032,59961.30665187024,60012.60386900641,60033.33844792043,60075.21778063395,60033.96230626069,59950.71797514819,60013.3359293882,60046.889330773,60053.309323412635,60119.85347518475,60051.069327063684,59987.27078273466,60052.425823189486,60082.76169029349,60107.58803784508,60146.966764992256,60071.929736523794,60031.34417300984,60113.07716974964,60122.52103512951,60151.87802285927,60204.542662066015,60141.44903257992,60110.38805439994,60146.05640459841,60170.19354333137,60198.93715815382,60248.114686697016,60248.51437339892,60170.70767320612,60144.31757281092,60186.7068183075,60218.34039080027,60256.4040908147,60265.53418169491,60196.48548284556,60186.31293559369,60249.00448894192,60267.06383011529,60298.82849704224,60294.68219101721,60227.91912374588,60231.41722384681,60267.543618470605,60272.632141042275,60297.76440881781,60313.60548517807,60244.44128447956,60225.05410975773,60278.29767613656,60274.11765962692,60310.91284953665,60330.069313198845,60240.92672676463,60203.42302598244,60223.295442607654,60229.9598662419,60266.93560895972,60281.929671164275,60210.81498960358,60205.76398786,60263.04877455303,60279.07137845713,60338.65837504059,60331.095628089046,60229.85269354592,60242.98396020818,60303.26716740744,60315.52106432683,60364.07623011874,60358.10073984983,60256.8106242238,60271.9479590503,60344.26075971472,60352.26636844091,60399.462444466924,60409.05758501389,60342.78406668071,60339.46831815158,60371.658288778126,60366.8785327301,60396.75394437657,60397.120307126956,60332.238183499234,60366.851973130106,60402.35289825586,60409.2359972558,60469.65512084664,60423.38435960939,60341.504135375275,60348.656876452194,60377.241692460906,60427.51917666269,60473.974587339864,60422.38194700537,60335.827561148864,60352.10593738037,60382.30721564118,60406.118197050295,60456.369918407065,60413.499556558534,60352.6979547915,60375.777597123786,60403.06875245894,60417.63810593272,60448.044684044005,60415.16565736649,60364.74350052643,60408.53029575018,60433.87892740481,60445.28388411095,60483.132690334976,60459.88960031948,60417.38978464113,60417.45460520858,60446.80025528406,60467.67353808784,60521.38338770438,60556.311646734284,60479.065907584096,60441.05000888394,60479.54708191888,60492.389846637976,60517.93137599171,60544.28105526237,60478.21766210348,60443.34474780494,60503.55920381087,60505.27632010103,60520.80449457509,60522.23348055417,60441.93127574142,60457.46959329958,60513.53908606771,60530.71252298109,60569.094957126006,60569.889520281926,60498.778043299484,60496.70586173749,60559.052404646325,60554.41293483491,60588.08361981113,60598.028684331926,60509.14305585718,60500.908619927046,60545.85098466722,60575.868240812255,60614.87911209805,60588.08711794091,60490.117473195336,60491.30212037419,60543.65046447096,60566.004547397664,60631.8726738357,60584.30560508115,60515.2243355895,60569.03933481473,60597.83443373169,60614.15311762481,60639.33265262493,60605.99209445036,60507.82126607254,60532.0647613223,60578.56521487112,60550.88820342507,60629.806368566584,60580.859679429785,60527.16076435974,60580.727359143086,60585.783915117856,60630.894420407116,60610.373552472665,60683.493785429775,60457.16453316489,38680.00000000003,38685.71362500789,38695.18220862815,38684.66987079717,38712.26360366391,38705.831719842274,38695.02064765084,38698.80721056911,38697.08661053084,38689.758791065906,38703.00235174649,38715.02850052409,38686.140913877025,38682.76878649555,38687.56265737525,38685.73386628798,38701.664545496336,38689.76808887554,38669.3319820775,38662.962718317525,38671.22761633606,38682.00201911799,38678.642371365626,38667.755731471836,38647.61334900371,38663.21051791144,38694.52634668867,38694.5508277745,38695.87947104153,38686.68456366252,38672.39557600284,38679.57785575872,38685.0029076271,38683.92348483171,38686.612847771554,38689.64912734881,38687.99583913104,38692.652926930336,38700.54863086038,38703.57970444148,38717.29331868933,38715.29742291868,38687.49702456638,38684.12643123433,38700.06980981491,38712.43995669397,38730.00458973094,38729.086200485486,38701.569460007944,38695.91643173206,38724.02736539476,38739.615994030355,38746.997244615406,38757.204981175564,38735.7262307807,38719.80722527599,38736.069760648934,38741.83988020821,38744.08660762313,38750.103608096855,38745.96242232332,38747.86569194793,38756.15232221401,38755.406689664866,38762.369750067395,38773.20325556534,38759.12080885814,38747.9178270926,38750.0791771679,38749.6143472906,38763.046296871886,38768.05864260088,38750.96721014351,38742.36447460441,38746.61154033471,38757.541934832894,38767.45985218396,38759.611692628394,38734.786469267354,38716.401840175575,38724.56155225612,38737.91168438346,38727.43991513122,38717.59091513077,38718.03723663134,38716.872979445216,38727.48968016558,38734.801266750874,38736.151686474026,38738.753480454914,38730.42909209178,38726.702802069995,38730.95280953172,38739.497234298135,38750.5514756934,38761.27641981919,38757.535426570736,38732.682245174874,38737.724603623115,38756.15871321709,38767.20353045606,38796.56141536998,38786.81834210319,38756.50271173218,38763.32865354066,38766.844726696014,38769.81760413322,38781.32116130304,38768.477182535076,38755.04629248252,38773.42803387394,38792.7046666223,38792.38050751321,38785.2844947522,38767.87339840145,38754.44783525211,38772.69318891116,38795.03965992066,38791.27282296161,38782.92121950599,38768.632125083284,38757.44550776705,38767.95285355275,38762.009771800476,38762.860958933416,38785.69288677812,38776.00275829668,38763.71026381957,38767.99720012485,38756.929734719735,38760.93683297452,38782.02446903016,38768.67416895475,38751.32978629502,38767.52469727925,38776.23018551462,38787.884403311065,38801.87684109386,38773.9073184978,38756.92255126915,38776.62223876975,38784.401988592625,38795.75622898975,38809.48034686605,38788.40584780304,38775.18075475102,38789.717161833825,38788.887528186046,38784.189219192805,38791.35791704515,38791.62199832611,38787.03585602426,38787.44705457572,38782.468522348325,38782.35058464545,38794.86136155225,38783.7449479759,38768.50456276335,38772.45318965554,38781.11529679281,38806.50446273612,38813.27271786836,38790.506227325495,38782.142474086475,38792.194293353714,38807.9982353855,38819.95273235576,38817.00808703561,38789.36565254279,38780.25249953917,38807.102727774945,38818.379466559396,38820.00368436423,38811.86007954612,38785.2598594217,38785.15335188855,38802.88985688048,38799.67017944542,38801.58400054135,38807.502290120865,38796.15958971658,38808.493413654665,38819.4640996229,38808.814605846834,38815.984725738395,38811.96045263927,38789.38237340021,38772.84287923179,38774.302193970405,38784.57195051285,38796.90589630893,38803.59749251009,38781.293654436966,38783.91618296389,38796.83112914315,38806.21486585102,38822.492874512616,38788.75915939305,38788.62813416894,38766.40153111242,139,96
61487.00000000006,61629.954265788336,61622.378290701825,61786.89900232069,61579.677524517996,61549.98188775241,61538.92010088674,61501.21928600587,61588.74484886262,61488.21718683082,61463.09016149166,61523.700090645885,61478.380878272066,61251.25563863973,60972.597478269076,61175.80827178714,61470.610239347596,61366.91132209264,61158.21661055213,60957.71035233952,60806.999999999985,60824.66783203338,60933.62854953856,60865.416333616115,60796.2506575598,60915.73192576991,60935.99368212976,60920.52359242755,60906.365246532914,60872.242575080505,60885.78879081838,60888.82477146991,60944.64487684953,60896.90190134183,60816.14493833631,60893.16582440255,60910.443742455354,60899.227527245275,60903.55663330978,60812.25483779538,60811.0,60866.525691374576,60809.522659110095,60817.610187779566,60826.92308148599,60900.12153859765,61001.57463859067,60806.24827248216,60772.79466588669,60892.892046469904,60843.601723506414,60792.57083068645,60734.78751270121,60801.88816565178,60774.52428642644,60698.2957690111,60711.663365871165,60638.65718736836,60684.75639852276,60635.873473738575,60574.99999999999,60601.65218919707,60594.73139376435,60637.024828143534,60497.58146093687,60439.86692985856,60470.183125812255,60538.016112503086,60597.12680880448,60425.586401179695,60451.99206982359,60474.216000655884,60498.206147527075,60550.57657642087,60416.13468219893,60466.85455332449,60485.690100562664,60530.94199766266,60513.6506899849,60361.3882081931,60426.0,60447.07831841108,60495.30130134348,60437.10819119308,60350.29206435941,60442.490663278484,60438.53097537025,60442.23873466561,60360.95131430865,60367.925422855726,60460.88230766449,60454.49737645172,60455.36099626344,60369.64963281024,60421.246022785446,60443.98907176562,60399.99653001994,60403.0083262208,60340.351115665915,60433.36598675857,60444.99999999999,60400.389828631574,60368.0574100159,60343.864785609825,60484.115891870846,60415.540253082596,60329.858393522154,60361.806223068794,60378.852414125875,60460.38635706115,60401.50988957146,60368.19950607721,60400.05616431529,60403.84107331481,60434.1465245119,60358.92923740995,60369.37944676584,60464.16864936378,60422.63105217554,60374.72316941322,60341.0,60375.68038660608,60426.41113162244,60292.534800998386,60393.55189263418,60714.53719144154,60905.06437393953,61044.601019685586,60830.40973423238,60643.20872456916,60748.2242072293,60727.443369689085,60768.36590026351,60580.22680345128,60374.49355204287,60516.034926162785,60481.879311735145,60478.456269787355,60555.44462882378,60588.48351966834,60571.99999999999,60370.906557294606,60369.082696552476,60520.28538370837,60578.08475799661,60547.450332723645,60511.76895056281,60621.42165422688,60655.03565875829,60624.76963218565,60606.183617173156,60547.76369960835,60619.63531387614,60692.772414253115,60694.72200476767,60790.88365486917,60896.44617793247,60910.84564821692,60855.2137534295,60782.87977818628,60790.0,60847.00982858716,60876.63537391039,60829.0365963848,60645.15718718183,60505.810768225885,60487.16787128801,60421.02430317907,60425.12379131641,60504.43748312919,60400.36917721184,60334.24728131855,60471.643075867745,60481.346987137935,60394.70224978531,60336.09626714926,60350.75314164806,60469.166151086996,60401.23788027087,60329.04641244718,60408.99999999999,60468.63438066277,60517.29662914238,60403.1346792173,60345.792352807184,60419.09122173554,60437.364217591145,60442.39464448269,60339.8783899539,60362.99777506307,60426.99017531232,60437.99685158939,60472.94333484632,60318.83822829891,60400.6176596207,60480.50250067851,60410.35324196853,60524.82716382244,60259.38223951256,60521.37604475451,45925.00000000004,46011.767681163175,45986.075301624725,46024.73510213062,45923.63938444007,45937.959653064376,45901.52213142171,45884.88050602783,45885.13712006301,45832.6497273081,45873.40754386578,45807.77839900689,45721.628324406585,45649.26651997358,45609.92787145913,45731.61406492946,45708.910421891844,45584.51300518265,45515.5712634949,45431.55140673363,45393.99999999999,45390.55013281171,45406.89186959928,45411.69889552782,45415.257124957265,45429.818333272764,45424.96631037529,45433.8360199292,45420.83460386931,45422.37217900725,45447.96180841647,45455.664309304346,45440.13074668583,45395.27133005838,45409.63160853776,45445.873089373585,45455.2896853691,45443.22243250659,45399.865839346996,45395.20420117981,45409.0,45424.66942472109,45411.81513151085,45392.573254400486,45421.29773541173,45432.06251492463,45436.58534583144,45404.481559258886,45400.00442696496,45435.222165229425,45391.21605665457,45377.64046108819,45394.487733603724,45405.742724219104,45396.25946685625,45369.984763820146,45383.35668447095,45353.74270426795,45364.85045245265,45369.063043195296,45318.0,45336.48973464907,45335.0476005483,45337.92768585105,45323.47905647093,45302.37288850638,45330.51972682156,45306.886756635264,45292.54051762713,45265.931892100685,45267.123367833534,45320.49757069669,45302.30995448681,45282.66563271052,45274.91479374332,45280.43755153146,45299.94350019527,45305.59816519712,45281.5307817029,45239.61898208891,45261.0,45262.61230756299,45267.161663919185,45272.80754162689,45235.71742730547,45256.81334340247,45243.72858362258,45235.451636982754,45255.879449430075,45258.80227933522,45293.00126471679,45252.861487557944,45223.08900740432,45243.75395732905,45258.537593047826,45278.89728312654,45236.75003223899,45225.89578712189,45243.89193176711,45261.452911773034,45277.0,45222.911730760214,45218.21966705815,45255.51160821086,45259.475816784616,45223.640851167525,45200.906885132914,45245.13957208436,45242.976366668576,45256.42485265917,45266.92246838509,45222.04321566303,45256.98864310823,45249.91436262428,45216.16945951113,45245.95286172324,45242.15126900808,45249.54389757482,45237.44672565982,45218.120427920025,45242.0,45225.21575326638,45239.96867298638,45295.68637750271,45334.619207276926,45417.288517269146,45433.661183269,45332.73251299328,45280.02225186512,45280.918602306716,45283.423566444486,45283.61809025884,45246.819184446766,45231.73806236876,45253.42504073972,45254.34952743264,45248.02459388259,45243.491910129575,45248.28969960077,45273.92943649703,45284.0,45262.236544935884,45274.38285069541,45313.37911266638,45308.61923643235,45296.580530849336,45302.64697296311,45330.970749372354,45342.926188295045,45305.1475214306,45303.505448231146,45302.7026761147,45299.62761828839,45344.261646930936,45354.816455272696,45381.541584535255,45422.791652551714,45399.244335863375,45390.4789670947,45399.848288198424,45385.0,45366.507631844,45327.606418308766,45278.58112384978,45278.64461162346,45285.64428681989,45270.001614069326,45305.1173487743,45330.45227704133,45325.73721140175,45329.44797125145,45318.12887521478,45364.54314460712,45365.26562182556,45290.605100866334,45310.48108026848,45351.2559394741,45373.4517757185,45360.906848788436,45327.95049620898,45365.0,45393.55913018082,45404.15634700093,45367.30606332352,45339.618947100156,45371.47864943675,45338.1899962023,45343.112573795945,45344.6561496554,45328.002391841284,45363.02716078425,45331.427991346376,45325.21226678733,45321.077107603094,45340.60118698923,45361.98161135824,45325.363941963966,45355.593677926205,45231.18632760402,45388.795778784486,112,75
61878.0,62162.75583210993,62046.2720276285,62200.067058028384,62090.928064392545,62099.79915633168,62095.72323522733,62088.37301542016,62111.99897021909,62267.84181940941,62529.59089449217,62413.28698848933,62229.31464062022,62228.720061958855,62383.17615984908,62610.47883327941,62661.37074083395,62529.95816446484,62383.14769375968,62416.18335839719,62504.48886974481,62519.52804299277,62409.221871151705,62275.418292816415,62179.99332223333,62003.00000000001,61987.89322657677,62009.87753612385,62077.58377572481,62244.81515413884,62128.47463149049,62030.41209901201,62006.345511898064,62023.22412698814,62166.781630565514,62046.514164847016,61949.05077489116,62065.549080070174,62080.61802792987,62090.107426655806,62125.152565384844,61943.61409588486,61782.70456416203,62006.73723506547,62071.5366555885,61986.32551434126,62174.190152834526,62037.01603713997,61796.41256753399,61900.5114844407,61880.99999999997,61967.473576959674,62166.39691720705,61967.908011784544,61759.606750838546,61773.87530324128,61783.53091626753,61875.588010178246,61876.12126581703,61676.84215431584,61630.183824774744,61721.489183136466,61810.20191733305,61985.244192256556,61983.5182547065,61779.899550645496,61812.08773921974,61819.843835749416,61593.94269685737,61511.22200283385,61501.4156843332,61572.46273262576,61658.841680574216,61418.66531731519,61243.06159529281,61304.999999999985,61345.79756820836,61438.76480909054,61409.323947619174,61308.67147303222,61407.50414934046,61503.20894319956,61603.29759852585,61618.7234001509,61352.34980472547,61271.189792060155,61401.48744258866,61429.480582656455,61540.481719553005,61540.24465926268,61356.90801801054,61344.85907027468,61372.97465338455,61359.208220987966,61382.025746080864,61330.88793019561,61218.555542474314,61169.61929159165,61291.35590316064,61365.61465338515,61312.0,61341.71191279576,61222.37606323234,61117.063191541456,61224.707320071415,61189.99539064989,61273.45794912028,61310.2799298214,61055.86713411552,61139.90239363533,61245.35807604739,61132.050872351036,61231.2685245974,61243.53053530668,61138.233271252204,61095.35036001923,61051.99951440991,61118.826499364746,61178.95457982997,61248.92556424482,61283.33286026231,61061.53007713056,60979.56666075901,61146.76098584096,61219.17400611238,61245.00000000001,61235.415453388785,61143.28990383955,60955.96394207534,60830.98010266851,60943.620474035146,60957.98396693092,60977.167757866766,61125.83584726182,60989.67666593454,60918.72714011332,61094.810337507406,61123.77680642998,61196.482739121195,61287.43812011998,61106.69102579022,60954.11626662587,61002.49059886857,61014.81056078963,61076.40386843351,61185.34111874693,61058.22422730849,60955.996889845934,61050.49845343507,61053.38802367187,61083.0,61123.708232621,60947.31528466657,60867.267254436454,60931.43211106851,60932.335748374186,61016.96627664509,61085.93664909428,60986.2625427892,60850.64620333066,60818.03706870252,60838.5570024466,60837.44770953384,60949.84822604212,60961.81416224833,60752.03450875165,60710.75481131414,60811.14539705202,60843.02266326587,60905.56035086183,60953.686453396185,60827.45639115384,60742.39592496638,60796.386336467054,60831.52495592625,60882.0,60904.0400932712,60927.23451175926,60805.54183014351,60665.2125224673,60781.744214167025,60745.322035334015,60774.293621312325,60860.122161601874,60725.33808285464,60705.14466708203,60641.67783146847,60689.68680083239,60749.44700822477,60756.004934723074,60902.41527969174,60717.56099480599,60600.685349834974,60634.25367463074,60648.60087313666,60717.24973878596,60688.376952655606,60816.25359956744,60506.47167399016,60672.33451317141,42128.0,42178.110963749634,42125.97087475776,42187.948865900034,42127.19115043921,42162.0196426917,42176.99348970688,42173.26230349572,42227.65029244311,42313.31884740386,42324.61056019395,42259.38038767398,42245.87894684138,42240.955514152956,42368.73501780793,42439.08635690409,42355.054181188774,42372.76226465576,42334.700177831495,42341.15934043225,42434.1661996828,42358.281553480636,42292.602646109815,42293.12852548794,42233.97610845909,42216.00000000001,42207.673784419654,42171.57862314511,42217.60950681361,42213.36666073587,42166.82751558318,42191.43949219064,42153.56833151787,42158.05927930369,42198.32784706933,42150.128583396676,42151.79532100476,42179.03593458821,42186.43346349079,42203.08105333598,42175.98877843997,42119.56483780978,42145.35902290259,42196.155483625305,42154.7629096375,42176.96294782339,42212.935542544335,42133.9840980026,42104.92931511147,42115.270350233244,42110.99999999999,42170.32689779094,42210.803520348956,42132.848822889835,42068.47529840942,42080.50563186543,42091.55585058682,42101.03729252118,42056.03684062466,42027.67348385462,42094.57241048744,42149.028810216965,42161.759909468936,42111.87062091781,42094.73994515702,42154.10134770998,42114.16504434215,42030.562515522186,42002.60599851388,41963.81787042093,41960.46284886152,42001.680582507615,41958.04264011167,41899.606735334135,41915.93779373186,41909.99999999999,41922.01738718532,41940.0221584608,41902.227691776396,41904.616215770024,41932.05977369874,41970.34419569829,41994.360143329155,41929.80728669715,41886.66993100116,41906.62301023612,41920.803719814365,41950.66210456484,41968.00178426387,41920.36135182372,41892.52607144458,41919.94623722459,41904.36729566581,41902.41752010965,41927.15589508696,41853.24086892738,41823.17939728145,41861.93580094682,41832.159539601875,41862.96397552879,41900.00000000001,41857.09424507249,41853.54328065978,41854.250336491874,41883.528605321175,41930.00992054025,41926.82403554142,41929.952959491864,41889.748169494655,41880.4865173359,41925.863299643344,41882.72790107996,41882.27699539647,41895.87754897955,41800.78473924919,41788.19114523109,41827.69972945748,41821.486279575176,41841.106626435605,41835.258786896,41810.419043183996,41780.852916520846,41768.5175755427,41808.06541293494,41813.19589238407,41838.0,41837.91637179747,41765.58482472336,41780.61068897434,41802.35476993181,41802.992849218324,41822.886177431465,41797.70553514369,41801.093390200556,41788.187835251556,41763.13917800254,41806.89401317163,41812.258203942714,41817.29733697028,41845.728589925115,41790.757682442185,41772.2638509683,41822.24372000001,41810.46156813032,41827.44845776597,41856.420060885204,41791.461895667955,41779.98970698553,41812.68672938233,41776.619689992986,41772.99999999999,41776.58598574947,41707.10767190775,41692.51376489083,41716.8054684462,41696.069036536326,41723.098723945535,41720.92903134908,41637.609964090756,41621.47714230764,41636.69145273801,41622.226154880365,41646.67311133254,41651.47845130876,41586.853809318294,41579.564512125,41599.46351610428,41598.34536656702,41633.23046786611,41627.05315331068,41622.64253742434,41603.521003426664,41563.25296036751,41603.31721532733,41596.96092631358,41599.00000000001,41620.73667509631,41575.17106709299,41565.47753152941,41569.85323777945,41576.40738673699,41566.41246618741,41585.47870461274,41601.57188883333,41542.95495757566,41546.20388617365,41545.174635588024,41553.31034383997,41574.257261175946,41560.193639330995,41573.12861981513,41527.02005883552,41505.211958032254,41500.93082272244,41508.60097789234,41509.0582926171,41487.75540939901,41531.311329131466,41388.572164089965,41570.07063493346,104,61
55798.0,55843.71038761961,55645.06635524629,55763.096384165874,55618.999936611785,55711.082111641554,55682.981382629376,55670.68948484258,55738.55474011562,55592.25536540893,55598.732920227005,55602.9083135861,55552.79076248563,55541.21211808255,55550.61888254143,55591.629154474766,55537.15895596177,55471.75413116056,55469.904820789656,55477.28682810867,55472.793593268136,55494.039751650285,55423.292530407394,55360.31003452392,55445.08660130527,55402.00000000001,55402.79552401057,55464.55156211253,55362.611672495055,55380.65226464974,55438.9049644596,55368.615979585964,55360.564365402184,55409.221867173015,55373.173709293245,55306.37853459162,55302.31406507956,55302.020367397454,55336.30461194189,55399.400615035745,55370.37268304406,55287.10443429316,55254.83474070053,55252.9929642004,55270.29553430098,55287.876455621714,55217.091796177236,55200.66122355944,55239.54802948543,55208.9956425734,55262.00000000001,55285.96869687208,55185.504876369065,55167.55852923968,55195.44935842379,55181.45472187819,55210.23412754045,55215.82100647615,55137.08841456951,55132.99102132664,55151.168533977325,55147.93383251468,55196.913608808274,55194.648940144696,55173.09550062899,55131.147971360544,55112.63691474965,55172.40089019511,55158.04071016038,55168.8419727254,55172.36540614936,55089.48790642041,55102.268055798326,55118.976611093945,55109.51086746059,55128.99999999999,55065.2830147235,55027.228841641445,55055.99480628913,55042.8189568025,55081.34620726401,55094.22442813134,55008.89275629605,55035.75387815103,55062.88239227738,55000.510668933246,55038.09852258123,55039.68691497702,54960.21479655941,54977.53654576561,54983.07124316876,54961.024184274684,55007.624944730094,54965.6713765527,54880.073054560366,54907.65880638596,54909.33060728278,54898.93144908776,54952.53565155945,54927.034110029635,54878.00000000001,54928.88386271863,54951.836548970336,54944.697712441,54983.69365250127,54924.62166328266,54849.754486811304,54900.68893824009,54908.79229450168,54906.23374096945,54948.81724481501,54899.36876615568,54861.7396451402,54918.14480476856,54934.21948327733,54940.33410230903,54977.76176799826,54914.504520746836,54827.80113042193,54862.20263454648,54883.356219213776,54867.005916423106,54913.583170543025,54885.42382990791,54803.56623560606,54830.0,54839.73491917806,54820.70858527109,54846.32321014171,54850.819530949535,54812.939884965635,54762.08469018868,54795.197228723235,54811.819472032665,54801.08470673077,54859.02108046995,54789.71726280719,54721.66752452116,54765.632990630984,54764.98598938722,54796.56692363537,54825.45661545305,54786.64746386155,54737.763883189225,54734.82646450848,54757.02536353862,54759.71915842881,54780.393577059134,54752.84891535837,54707.6625376918,54714.0,54733.334859560884,54771.15573562712,54807.69792404199,54809.956211774035,54754.49911557404,54727.60244763934,54751.892967791566,54739.79024879693,54732.59432213955,54749.24932971554,54705.587781410664,54638.916324522266,54681.45973824201,54687.503679296366,54673.02369740687,54742.28374066612,54675.313077929226,54622.38759926229,54662.453588663426,54651.37221639144,54677.175380048444,54692.83570681452,54639.9385230207,54591.736024628626,54641.0,54653.94844855211,54648.536206606965,54707.58923530948,54637.26512781124,54601.110767679456,54631.66287091563,54653.31062800417,54690.84209943543,54686.44702961447,54705.74801630407,54636.51277118199,54604.08650506327,54609.278933557835,54601.72372464926,54664.85403795094,54622.79446944642,54618.371208373,54549.437406258294,54566.57338089538,54633.304884234436,54564.50640548262,54727.714644440624,54482.74837720548,54707.254537322944,37551.00000000001,37599.30522766389,37494.44164218421,37551.92863086781,37482.798536848044,37534.33992812251,37498.50762249116,37493.98270702927,37509.452552854265,37461.36213180819,37487.820157731054,37452.81896214329,37442.983714511174,37451.23653098251,37443.135658734216,37436.17445030222,37412.152952383076,37417.81023706989,37408.27581882948,37429.75497811423,37421.078247874466,37382.89657461547,37365.31451646111,37337.10880343589,37358.046908449185,37351.00000000001,37348.723675992595,37352.38382722746,37309.85019419057,37321.79905301313,37325.49725625326,37297.09659840253,37298.45810005394,37310.79809397039,37274.272459742024,37248.623474736574,37278.95058654772,37264.99749173878,37281.036064990396,37291.78898666996,37240.414021716206,37240.0825464926,37227.775068533665,37217.226055513034,37246.21094266797,37237.727884171494,37212.84815615988,37201.834547316445,37194.870647684475,37198.88851621915,37205.00000000001,37191.56268407729,37183.04921978655,37165.91332818016,37158.046376125756,37178.0355142347,37163.961360295354,37157.60590035366,37144.65480135796,37120.00392443069,37143.250128390326,37149.06961808296,37150.1588477126,37154.56071387215,37127.92049850622,37121.82499160774,37138.66656184136,37136.35195849274,37129.77218730821,37142.93939486667,37118.129634892735,37104.372044912954,37139.43133353408,37126.3775003224,37133.74762687202,37138.00000000001,37078.6456120125,37088.63592235006,37102.709551809385,37085.822761383104,37122.214044742184,37108.59989187326,37075.08271092877,37109.87931082519,37109.271305220376,37084.64765131755,37094.07429278458,37060.424119355994,37019.048840776675,37043.26039592237,37045.94047657612,37035.35486417974,37056.47879152192,37034.78093811517,37021.398723082995,37027.41445591593,36997.32768887118,36997.194750846866,36991.68188230132,36973.8014680177,36992.99999999999,36988.26474527619,36984.15618031055,36996.995040807684,36968.038504237826,36948.37493075538,36966.559339652784,36956.6726929851,36956.65875459744,36978.429789964044,36957.984463090994,36958.79873802047,36960.941518312895,36936.12654362436,36956.24330622284,36958.044456247546,36949.935021225385,36956.89912332941,36927.95244428153,36936.27870522167,36959.58268678297,36941.34019903082,36951.57964854062,36941.67304422395,36895.56892255303,36914.0,36922.263492849495,36902.68477362331,36927.670763942886,36903.15420194569,36874.61914312503,36906.08376220428,36894.265286293776,36883.92425583611,36901.61938322057,36881.335711303574,36867.65477686152,36869.45618181454,36858.4551589126,36865.158854247355,36872.84066386846,36872.42120806057,36869.628811781666,36845.92996624716,36849.90047377708,36864.103276433234,36852.23600641574,36869.45571500629,36877.268568304855,36841.717768994145,36848.99999999999,36884.68499244581,36876.94711649811,36891.4578310751,36889.05682083332,36843.432672289426,36867.76040557416,36864.50162565203,36846.47680514419,36871.91413711908,36837.02925958832,36818.41683660445,36812.73290991786,36788.49017333543,36798.83723763086,36806.457668975614,36801.97499489725,36797.627561257876,36803.84811228877,36802.136982261465,36806.82549906278,36797.86681760357,36782.730350828795,36793.27532571061,36761.33532527425,36771.99999999999,36790.569829603184,36779.97003732089,36809.455325824456,36779.74120228538,36763.61908846773,36779.10913610124,36776.490387097125,36781.475240698324,36784.21789096053,36773.41467000999,36742.14616231087,36778.79410994678,36757.57103082438,36750.160435652,36793.87112664633,36725.3565110596,36754.63999753569,36731.125979619086,36723.16563411601,36771.036291296514,36720.569987498166,36802.766231447735,36653.21309556505,36842.34921815135,108,80
65781.0,65942.14196093539,65286.97911714493,65268.67737413998,65683.3981250198,65695.30382001681,65888.94304731803,65922.11477995332,65507.311836171284,65412.897299561555,65630.08290329816,65660.26493955195,65842.93067635222,65910.32247394504,65395.78158456814,65370.8722018262,65671.46632872545,65614.87159706424,65798.77189728829,65832.48954337242,65605.81666268941,65486.35259258328,65509.256389039554,65768.49173431595,65797.55601228758,65931.00000000001,66020.02143058271,65526.223673467044,65514.79665953174,65841.87678267049,65806.26321907615,65954.50708568911,66037.39913861676,65674.22920751871,65650.2415048,65930.76450125003,65887.78315514664,66018.90909296283,66085.7661371333,65808.61478886975,65810.79646957903,65905.7295559226,65999.82165185681,66040.8931865007,66132.66084891261,66200.80564567281,65802.939381277,65833.51026516475,66159.71348534407,66084.54877746047,66192.99999999999,66248.82594411542,66076.19251980848,66015.4354669492,66075.42637008615,66195.4708094397,66212.2470943679,66242.10380418166,66236.74098756826,65973.55588422973,65921.09902518068,66184.08340602944,66145.1923410302,66202.06985232444,66336.20924924561,65923.54767823503,65882.12633382254,66163.78723664208,66148.03788322161,66252.28277693459,66271.89741581223,66249.89250067741,66113.75200382373,65956.82552883828,66224.95254749765,66240.0,66222.57127071766,66363.63748578119,65959.59087591169,65829.02227445289,66147.59965224884,66085.33292590044,66149.30588710225,66299.92110831523,66038.82182776052,65954.70656549919,66105.025590344,66203.89588497058,66272.51302576264,66274.93346190831,66322.05874614931,66179.70919775133,66056.35042777183,66252.34626499575,66259.53686779745,66275.85782736924,66403.54641213226,66100.5415346206,65923.52281831732,66193.61743604852,66191.99999999999,66220.6141208003,66369.17534025807,66027.73373151138,65877.95254363162,66079.03949781603,66148.59955953338,66229.57850552237,66274.17577615265,66334.97336651855,66126.40070345257,65910.19637959215,66158.45225230389,66147.38206814551,66145.06613380238,66323.96087744019,65997.8967497771,65844.09580720907,66122.97127905575,66107.72123362418,66146.4910532643,66325.23250434405,65941.25759511808,65749.6524598411,66129.28800244836,66133.0,66178.83835835062,66355.10505934188,65983.41429940872,65837.03720918596,66124.87988490397,66115.41727604972,66183.91885136192,66292.66132079055,65847.08559370543,65708.76599914684,66032.20716783899,65995.05865847666,66108.68497767737,66167.56179730955,65586.61682613265,65513.590116381165,65976.29964416413,65916.50999855658,66066.44108914182,66265.48477412961,65605.42688705701,65477.17414916,65873.70087626667,65817.37721251948,66016.00000000001,66139.11657350577,65898.78447748198,65591.46420826178,65494.634702745156,65902.63268850755,65950.79336203134,66014.4884078816,66242.02086149906,65732.56272227544,65528.08592893409,65804.52798602503,65971.17840341077,66087.63496658388,66136.14290459445,66324.45616272611,65860.86981245421,65484.614167846594,66029.46502325566,66000.00152597387,66045.76315894767,66325.94038941301,65894.3154614472,65725.56504155607,65799.8973916342,65979.0,66105.6374924911,66070.04670519133,66363.11029597963,65913.49248630853,65486.5396006767,66017.91167237192,66080.95937432001,66116.79030907605,66320.44923808935,66129.90976127607,66005.30327823944,65942.64799790535,66073.82614121021,66189.71669342733,66193.58137009182,66280.26073609547,65993.32583756463,65792.19127960163,66047.7035854737,66146.50450369522,66137.5705147296,66301.2139851799,66088.65216931692,65561.23583594318,48011.0,48032.99743848957,47836.40092530081,47895.28170794336,47972.148047700386,47984.61514718773,48008.43925956939,48012.906363543574,47844.7180304884,47846.23909177874,47966.54043330286,47912.66447172017,47979.110238110814,47979.64112024683,47806.14895971098,47836.62057219495,47923.49684931287,47884.015913929725,47955.02667900106,47947.77342649681,47760.58069465558,47812.95797945755,47894.53760223414,47871.592455801256,47940.783453134245,47934.00000000001,47896.14911215139,47835.42231326357,47815.21286517283,47893.655536287864,47885.02989163635,47907.6663471764,47912.62049084672,47814.38848858262,47827.108486263554,47897.40729086523,47880.15252287259,47907.807485055266,47932.79775869973,47798.03732448554,47815.3071448131,47915.128194634395,47862.37177245819,47934.09254634437,47927.613518237464,47791.6764395009,47830.732640814225,47873.79196921536,47890.32782325509,47907.952879600765,47916.00000000001,47935.595918692205,47830.395578663054,47815.56632458255,47917.49855784848,47879.8360593453,47910.23272394235,47928.18528258746,47782.1320882619,47787.45378459707,47859.4567008362,47846.92177383058,47867.06481422354,47880.846701589704,47853.884970477986,47792.48029704263,47792.852923811384,47851.92975647143,47844.51738285014,47868.58266248242,47874.224842314514,47766.81647691186,47753.72834169125,47819.539321180055,47819.491351863624,47844.00000000001,47844.442383213674,47770.319436970996,47729.7902164134,47739.428003317335,47787.264049907935,47780.419557260786,47788.45400846367,47832.475583536805,47720.40702548209,47697.61222609092,47793.10364875514,47771.66800216524,47790.34736534202,47794.650026858144,47718.326908804214,47719.55175386869,47755.775622404275,47752.18787019394,47774.91738684541,47793.951554238585,47726.51504599217,47689.60465613033,47704.293319292796,47728.24532160882,47750.99999999999,47746.79182153625,47764.61967376246,47681.47176337597,47627.542153335,47721.9172631569,47708.547305253756,47718.15750268741,47761.48504158629,47664.52845854723,47624.47847588961,47667.63052862294,47670.1090348715,47682.41138822072,47707.43358015734,47637.36771415237,47586.167251478735,47636.47981868052,47638.88176488105,47661.363105452016,47687.31011238421,47611.52313157803,47569.607612098225,47591.939760740766,47620.495611976956,47649.0,47660.94516571216,47620.208123319935,47567.56394592656,47582.84359239084,47602.9727824541,47635.38434639267,47645.93188267272,47521.2782694212,47487.84798306532,47569.38612788892,47545.182936592566,47598.06759311511,47614.09396450889,47423.68248357711,47412.00957877711,47507.33958772503,47516.87953693097,47555.499514407915,47566.99977093096,47553.71155680761,47428.458650965236,47387.90339579108,47519.408399205895,47469.893888733786,47539.99999999999,47580.5050043143,47328.85323201835,47351.9757183923,47452.057697589276,47453.90640046753,47505.08779169802,47511.987693029114,47554.83836616846,47399.21370911213,47328.158472232906,47505.69694517666,47474.44210250975,47499.84939980644,47546.308303720194,47466.20934942402,47426.86816464294,47391.270205217814,47479.172912214315,47488.006649748364,47486.4359939736,47560.78167385103,47393.80480622558,47339.00105847329,47457.83273531104,47459.0,47479.881553383864,47512.844522237116,47455.33965174099,47367.267533476486,47381.33760744209,47454.51020119047,47470.687961090975,47483.89223568714,47527.09501495956,47430.384317231474,47331.75652727685,47464.741939897045,47453.71142204797,47444.31882313284,47545.30422364228,47367.358072705596,47320.665003528215,47417.56929903296,47427.66383724978,47461.0170382535,47454.22492560342,47453.50709239646,47293.38416372526,47453.56066892448,111,72
62554.00000000002,10764.557813267491,-4297.689291118644,4612.481374077294,2708.2481823941507,34453.88388124477,58806.96312400002,59516.796554562054,60349.3404149911,59493.70302073352,60803.558169171934,60319.823615664216,61008.67393861427,61190.28193483984,60615.36693574785,61654.898230281826,61068.828107025365,61803.33665082887,61416.39754616902,61370.400157620126,61410.71887101619,61018.695847280185,61714.59574047306,61214.03870075948,61450.81224524019,60890.00000000001,60841.0211230283,61309.29586414507,61016.69200390947,61192.3901381876,60529.701256142434,61281.871320453996,61256.98208033333,60798.65924760728,60843.56483838616,60004.98266061512,60790.26618115358,60653.97714788021,60756.494531898046,61316.94786377702,60815.173483446946,61105.53309898403,60908.285651834085,61284.65373806626,61231.71653649154,60551.506056303755,60808.14783797872,60822.45343524424,61142.63249384693,61439.52319172244,61410.0,61210.82524351262,61293.500733013825,61488.976075785,61580.78349954251,61612.715986585274,61049.31030146777,61354.1799508691,61507.535939334855,61469.42482373769,61661.93529777063,61212.422382679506,61692.47858416309,61767.55191610694,61809.497376414714,62068.99161136755,61436.632420080015,61630.25634495738,61716.079701628,61890.22865641733,62126.75141348922,61577.03521937939,61746.57405318176,62062.85225158443,62145.510408263326,62273.0,61991.07982264955,61772.76383232617,61915.47423995958,62008.69033803136,62231.093473250985,62211.7846166572,61643.529206897285,61837.85322990924,62189.30719766347,62112.95625004101,62315.080475542345,62095.81174657195,61675.80285049804,61780.205079636275,61954.648137851036,61981.89073133735,62145.86177579018,62026.484944820455,61687.68178632801,61513.8975377123,61623.605512031725,62129.738091055624,61942.65603279781,61541.17999212095,61404.0,61261.75270969543,61738.10636739488,61592.43987077412,61037.678873867124,61187.26301608767,61306.75192272752,61405.34970313004,61849.681032820066,61813.57769294903,61305.328003980816,61452.41848502576,61461.32109421246,61754.97682190387,62031.59524007644,61288.02512117449,61346.242920548786,61488.99227609814,61593.46351560394,61809.78834288151,61606.01272583825,61961.99959587241,61915.048499974444,61844.273335681115,61926.28421490558,61793.99999999999,61580.59509556234,61119.8104843899,61455.0013490383,61760.38390100699,61507.26168272789,61078.95579824457,61218.82806655898,61393.10364423841,60894.203548393634,61423.14763702487,61481.210258372186,61510.458484487215,62559.59367872588,62494.56666517876,61719.87591874086,61370.06732277379,61666.68732023963,61483.431761700595,61803.988354718975,62449.017357178425,62118.95703586164,62262.6277614962,61804.074787430596,61548.972923342306,61745.0,61425.067086493815,61422.67738904249,61083.05613150358,61042.134457004686,61315.056558177246,61719.01016208681,61643.559686736866,61410.155357132906,61615.37830928688,61481.26931849893,61699.52952963706,61211.89729275164,61417.54207462794,61707.97945906968,61252.194848767,61554.26965933592,60871.29070521528,61417.280579313985,61499.825869005166,61065.89037174704,61671.03159643004,61168.1352184057,61936.95719608541,61630.041642033895,61373.00000000001,61722.670775059116,61327.92912831945,61830.36253203305,60997.13211444998,61380.854290792195,61096.10588365317,61101.34625602273,61798.68699523995,60849.9819680087,61699.12068144686,60709.568087423046,61423.136536208665,61595.62536941482,60864.71669397955,61956.36901352382,60129.38181803199,62094.96575750842,60840.88369972265,61325.01468231685,62192.91261873493,59325.58352796105,64564.49873570648,58258.41355959804,65117.38686904621,41568.0,5009.908955678842,-541.2182823561086,-1290.0201533967816,13315.29722640432,46820.47908283001,41605.84888308373,41063.83643152406,44591.43064534999,40180.77868919181,44614.89698876822,41498.780563184715,43186.55823844519,43169.97512084306,41981.89857389435,44093.94733418899,41923.474927729185,43815.91601924083,42649.051721611344,42765.352594248194,43410.416677091,42246.53154852949,43679.827542956744,42358.08375873076,43163.65674003871,42842.0,42561.8985537868,43319.46135152528,42320.00916830878,43241.48205339656,42520.35901372262,42983.30782818548,43016.17048179759,42434.00278535129,43021.368269696606,42166.84370537136,42955.31655898634,42624.23759165011,42699.388383345155,42996.03730470776,42455.79438505563,43166.279028436606,42552.44539414113,43046.073817245626,42859.701364211825,42506.496560571104,43032.877424670725,42521.40733161924,43167.70076654348,42857.15388133101,42836.00000000001,43058.028798263025,42783.80886105512,43175.85302540822,42824.84483943753,43063.92389426706,42880.7127058273,42881.0511645523,43122.29892872537,42872.815827577,43151.76715785444,42837.520710137724,43101.13875240716,43138.307503198805,43045.38616237928,43154.239901885296,42816.09714552365,43190.01539956664,43016.428824040995,43118.21180092816,43141.66909196354,42929.52246886774,43291.82731075272,43043.91155372411,43296.89051489761,43239.0,43002.218064938264,43199.380595208575,43078.58341113317,43258.43563382806,43177.538349414615,43141.47995802739,43134.77450630828,43131.64244808769,43274.32467658986,43215.43770564167,43262.10262238753,43040.004164762286,43100.249287352504,43174.19561159345,43069.99241342691,43292.69507020988,43169.201803658594,43063.44961966497,43071.364532524516,43024.66884046134,43165.404955309634,43271.85107687438,43174.456673669505,43006.43116585608,43002.99999999999,43126.18986476102,43118.5928220234,42914.09539495681,42930.40984566663,42954.89157155812,42933.067575623005,43081.42919896776,43127.00007744758,43032.97217652372,42895.59651414769,43029.2104503205,43081.48069339941,43087.274587329564,43023.06134268635,42834.6955969181,42950.77124261692,42818.230428625626,42967.63463953264,43128.46298289446,43027.95821152553,43107.73470437151,42969.75762444045,43078.328015345374,43001.29905823562,43011.0,42955.66350913501,42797.28820296894,43085.88495587044,42899.25028356779,42881.367933229514,42830.66509676587,42974.61373375462,42931.08231375496,42645.57177419866,43191.2641804475,42944.12325425651,43266.95155077707,43571.14274907616,43091.894928785536,43207.72686553058,42971.928784161515,43219.712594110846,43174.006886029136,43376.00192638186,43511.75221374231,43081.438645150534,43440.544990112074,42999.13535312439,43096.60729883374,43080.0,42889.02097583034,43066.775393190226,42676.607817016535,43118.23339197618,42897.880330690234,43191.04255156032,43136.14826483769,42817.93791954631,43366.20984865267,42750.04012886795,43234.76774958228,42918.32063835922,42938.03213245768,43304.4716536683,42629.177862312965,43275.66153249518,42648.37171160472,43137.044364325564,43086.64305849679,42727.586489971014,43418.318728721,42613.193203173905,43517.44080818709,42873.13027470747,43003.0,43332.631482164266,42605.70825164207,43637.400662083695,42463.58132169727,43320.8732592495,42918.59137532839,42742.78310207759,43654.60121584733,42243.52137375028,43754.32045736203,42446.27492578035,43279.404152803545,43357.006704923784,42241.77231624524,44092.12728041829,41766.87848931684,44098.561560188624,42470.78549761208,42806.166240945444,44224.35420906428,40886.23428121294,46084.22425703764,39981.97931009975,45818.24224711923,120,79
59696.00000000001,59673.4373264146,59687.23154000784,59680.759344080834,59710.864371782234,59710.439445729855,59565.08844691564,59606.54066861869,59631.59207864532,59620.49656664747,59672.885147743094,59716.588374414634,59691.434550061254,59530.31864833778,59506.56873366069,59529.93911552658,59501.755039176336,59561.252790345636,59748.6278182602,59694.576308833304,59404.79831238037,59625.42792617224,59754.45901783622,59617.58465468849,59718.83790677593,59645.99999999999,59636.994357331016,59557.15330373682,59547.69208988225,59795.96817505305,59653.68726766378,59683.89877203629,59738.498045750894,59443.11529684337,59469.9752845243,59549.870073375954,59504.72506766692,59604.69915754932,59631.51330504953,59429.215567253894,59397.143496449295,59506.29984844236,59459.66945361047,59558.97397221979,59520.91528240322,59294.943732201624,59329.70953385442,59411.28870843775,59450.3598339497,59521.424384866776,59524.0,59381.14746215859,59425.92933709398,59610.700744362875,59625.16116157839,59785.78559769523,59795.00698039364,59690.93383166671,59763.86133730264,59747.23351452304,59892.81467869622,59922.61497266504,59824.463922642346,59865.5731559083,59811.44774582835,59853.93693715,59714.79484735871,59590.30347751786,59754.23111996885,59771.129899015556,59804.52918117061,59628.56162990484,59463.55326745202,59594.91183481405,59504.68280150666,59607.0,59688.41270883759,59311.493189804394,59210.20104851504,59319.96932359677,59337.381690893984,59457.214411349094,59502.10644999233,59520.22183575831,59640.91030322588,59438.49362491906,59165.34931053783,59305.12490161668,59374.9759032306,59433.00001602107,59545.38671568746,59463.08766072586,59615.30535150549,59502.792974208285,59095.396573563776,59205.14285455175,59277.98333246157,59290.48874764152,59449.23808094936,59469.46170720886,59632.0,59646.785811220754,59549.45965412946,59656.154407071335,59640.68026224506,59639.44505036675,59743.13304803369,59841.87696585847,59818.2385216143,59638.05464171121,59580.422895392134,59574.9302388716,59573.10335229943,59621.55566224967,59646.00961152082,59692.12359668293,59739.78178697748,59668.57805231929,59537.030520744614,59613.90548361767,59645.32817068896,59627.4138228889,59768.24390011986,59604.577273032795,59472.629015424354,59586.999999999985,59579.90632225163,59645.36374953169,59687.45088115606,59710.048598865134,59671.71845929496,59508.54380546177,59551.744956249306,59615.38862091669,59628.83021698374,59697.75709676376,59668.213342592084,59537.32583604392,59432.93454828694,59440.16840692495,59503.99764402155,59578.33276503929,59597.491296297005,59663.06658026279,59647.7917523585,59451.30532959728,59473.82525888364,59537.01853323285,59537.00965802425,59591.1183852648,59614.99999999999,59642.56995201384,59438.74903955626,59336.00172640232,59476.05975899639,59472.52846617362,59552.17584735753,59657.17978103331,59603.68954637024,59499.88692812285,59445.7154906578,59455.16871241609,59512.06723279528,59576.069558136594,59578.30915001878,59646.07493249586,59489.1337188609,59329.26774526996,59506.98149828324,59541.694660773435,59609.43187205354,59699.05925015296,59743.20998962282,59645.024608125794,59386.90613616481,59585.0,59578.1271569629,59518.090831262416,59735.04642838904,59505.69899667565,59433.88706383382,59400.81865423718,59346.01798578535,59486.65143941562,59457.68926813526,59604.42815811628,59443.4812994623,59171.78103722709,59273.8652033257,59298.57642146969,59381.61610861734,59405.39448791182,59497.528241831504,59461.406532799694,59220.08752257065,59338.10580023401,59394.7804540714,59413.76263665122,59529.6047931987,59599.669216760885,37242.00000000001,37269.36301806126,37222.06705101672,37255.92437035671,37212.27758381648,37227.131395476885,37196.50349966527,37189.98953743532,37212.62893530591,37180.95262901676,37207.064467497825,37201.983798358466,37175.51558153191,37184.37377197541,37182.32624362734,37166.58229974953,37165.14953171776,37209.27632106363,37201.17417707883,37149.08107411085,37169.83918418929,37224.783274724374,37226.567287434125,37188.2790651831,37166.37749381512,37151.0,37130.277645389884,37138.485631661446,37201.08781205645,37233.07911371004,37204.143541438396,37193.489509522675,37157.614164029095,37122.25830286725,37129.46030199658,37124.709298817725,37136.370368793534,37130.944716308484,37087.92042455936,37080.48728589012,37087.63972188191,37085.18055912472,37105.74378104733,37088.486120214286,37023.10684592056,37018.083896250384,37033.877487968544,37037.22014299116,37060.01206341161,37030.47554278781,36986.99999999999,37006.47029860369,37032.52903907833,37056.19991577093,37097.554177203434,37097.01165893373,37084.54715381314,37112.1843337094,37110.5557003023,37105.715032517786,37126.21193694501,37128.13483485562,37124.17594093485,37104.954341246994,37098.71183656858,37095.1397063777,37050.2031941609,37035.861461334505,37049.74081460733,37040.61339831954,37031.04009921855,37008.90978276494,36989.66437529359,37020.71318200655,37039.811544834454,37034.00000000001,37034.81162455561,36976.54874923807,36943.267117034564,36989.32242165942,37002.819802166414,37014.01701854005,37024.46048028512,37030.947287656425,37046.03707355087,36979.381742377875,36939.20351822488,36973.741042801565,36983.28360731328,36996.54513306711,36982.29655437493,36976.584170876675,36974.7349735825,36898.1533705385,36883.4836060531,36903.10039511343,36895.70702840025,36941.426960465506,36949.15297461338,36947.08030010308,36986.0,36942.356533611564,36901.88907330936,36956.497742222564,36969.85444430763,36948.631842860676,36971.39562060688,36986.90692049137,36978.707242068296,36944.52517781173,36920.86196874815,36927.17630507042,36931.54163601565,36935.40024450541,36933.401583456245,36960.37444651336,36926.775863208,36876.6149219537,36925.60905621627,36912.885649686265,36911.43701314048,36942.224480622965,36928.1742139731,36916.75527007673,36873.73002586654,36910.0,36914.31851308586,36900.33786364991,36955.73724718125,36884.244091899636,36867.69950573901,36887.94343190962,36869.58358679202,36903.36431090911,36899.078532658576,36925.807438976524,36884.03856124786,36824.19552312308,36844.864120177284,36851.1477536084,36876.848172952996,36864.40996391727,36899.72090079543,36885.19027424386,36806.42385281076,36850.13428294686,36850.27709654791,36849.76648854851,36863.11628161714,36872.77102883999,36885.0,36815.475142489755,36816.18936217294,36829.436089277566,36825.7205963986,36836.5212547324,36853.133485303566,36887.909735709676,36814.93426873166,36798.519578532105,36833.200267036664,36811.65552447174,36834.114365396184,36853.89498461134,36856.04297410533,36805.441733939224,36786.39006690921,36805.3086088322,36808.30907675995,36848.87866747015,36846.53224589646,36870.19244928865,36852.24118229974,36797.64275905387,36828.569132065924,36811.00000000001,36818.02070732045,36847.46932909109,36846.59587990522,36817.54011528482,36763.27006018561,36790.66919232483,36783.8776066014,36796.861326265236,36839.43700597539,36776.873383796265,36753.64179104432,36741.29637439609,36740.129045747075,36778.493281854775,36765.96055476526,36806.18586583735,36797.75129491584,36705.145720588014,36756.984705905335,36769.60134922648,36744.00529602921,36835.15163041959,36771.47269055811,36879.15384282708,116,68
62785.0,62864.87521522216,62607.909564362475,62603.69835287583,62862.04741579562,62820.34122916744,62770.64576843467,62639.0183254945,62714.638473719046,62929.71095896097,62811.66874078063,62624.392626735375,62654.06987093439,62818.53196171628,62896.433973457286,62936.030996174755,62691.925567576815,62556.96419730549,62840.00403370564,62928.51638639351,63008.95267898028,62714.35787049113,62507.23390270707,62893.91303543084,62839.53606451464,62989.99999999999,63079.376469800416,62539.21666431828,62585.242760309404,63005.46488690672,62984.69002754055,62896.96899569557,62738.71964541798,61621.77800395289,61225.884504450245,61901.33598542559,61785.918636888295,62297.53373118362,62358.505046022896,61466.26822784293,61781.388492218815,62135.994452973886,62453.31473100692,62400.02295228159,61975.625952602815,62242.61162285786,62385.71930393438,62643.91899146189,62341.34879115114,61927.83263286966,62217.0,62373.76455011603,62649.2945775504,62011.769106726715,61674.371253170575,62311.82279852683,62388.22232015075,62522.25292567333,61824.157610626746,61542.155844728695,62361.58923483859,62277.23213801047,62542.81140918238,62470.58417189378,61643.12776097065,61845.12723970922,62185.71634807434,62279.41998169048,62448.32953485064,62109.680085094085,61533.65850345922,61787.29091428495,62346.473400165196,62375.03911634524,62543.28833142152,62204.99999999999,61551.98339613966,61912.128602040066,62336.627570507444,62532.322557265856,62457.921041559624,61824.502639952865,61986.44850762757,62415.1045364846,62426.32980417563,62675.30326340463,62283.954067951025,62014.09859597377,62429.27872623759,62529.56094819409,62711.97739678714,62336.82044770554,62005.52236695265,62509.273858003886,62597.08754630489,62662.04051114035,62318.14588163825,61891.119159809736,62370.010459133686,62474.28003673445,62644.99999999999,62775.652601258036,62110.08070519404,62111.31248642752,62590.60930088226,62578.18345575444,62722.704020837955,62806.31014795541,62192.86116099623,62145.46396774647,62647.16634907604,62543.15455058963,62759.811698670615,62804.87127414503,62044.82528577248,62095.18863563861,62578.65828676195,62553.06897390569,62769.19552575534,62804.06713916115,62283.19517077756,62379.74642649645,62710.89293771824,62705.959416922786,62801.630609139764,62552.0,62475.366942198154,62703.44034123959,62726.33671654369,62957.719351660526,62780.41141126803,62526.274802271015,62739.64481609601,62833.33525518299,63000.088042642245,62713.88028233896,62320.26045593459,62670.47948983147,62790.224391085634,62812.150156486576,63020.62281926048,62645.63715135007,62384.24624348009,62732.335587587804,62793.59603892805,62829.84144071166,63049.220252245665,62547.046788548876,62188.919830052306,62631.38196410242,62736.00000000001,62808.17161236699,63024.056563916376,62537.09560455221,62261.704004194624,62660.54005063026,62725.695927398345,62813.05803743633,63011.04189034661,62550.52500313881,62352.314151043225,62752.45086149402,62792.67882166527,62884.52071266452,63027.62589064222,62620.635511138775,62518.79759030615,62838.94194414965,62870.10199044047,62941.51105057285,62877.74561224509,62550.33862327261,62616.8277973489,62796.63486005298,62912.16977415603,62938.999999999985,62558.92765167812,62470.41891506017,62714.47381698698,62769.538556400104,62934.846883089536,62926.22407397604,62609.67934498377,62479.147584720275,62618.431869894805,62838.73766366199,62863.97242160606,62944.47457992645,62974.15716830162,62548.20565136379,62550.86399293645,62890.81480445209,62826.328034439364,62962.78664009064,62997.1622752179,62670.54981988185,62588.71611379304,62688.921119420855,62918.9601267391,62899.23888948998,42541.00000000001,42492.9643425224,42461.29330974521,42526.654132480326,42550.60438115711,42525.84666361812,42448.372359980836,42503.14965097635,42519.673599792666,42554.94374910378,42513.44895257555,42432.366976627985,42522.23694269382,42532.75627462462,42543.41884357183,42488.13738438284,42420.765150451974,42515.61136277322,42521.34162902595,42548.11241444389,42548.40298646534,42450.59634386211,42468.4233884075,42504.31963973219,42527.0494284241,42541.0,42440.093438020514,42401.66635722405,42491.37089884191,42425.398266342076,42305.60589164033,42156.52632284164,41817.05014748491,41692.69346847201,41769.39231136297,41780.97017927514,41895.35901145808,41897.561163153325,41692.32070681554,41703.50727667854,41848.59902162421,41875.52494662304,41945.184783033495,41917.138039371894,41833.06870670134,41927.9378373609,41984.9144910124,41995.16349298999,41927.829814018936,41846.593815217246,41925.999999999985,41967.50434855555,41910.61599206028,41804.97296547895,41845.045423298,41964.1235646324,41979.31837262182,41962.01594040483,41818.547046060194,41835.65463077751,41968.959726724665,41986.36467901397,41979.66084927679,41784.93947109831,41775.01478236249,41892.81977291895,41868.63178948409,42017.24461932216,41936.55662754891,41689.89171358679,41773.39889718006,41890.33788243547,41917.54209080645,42003.65673501803,41935.5065426443,41705.999999999985,41777.01248703233,41902.9465466465,41888.24564970932,42009.32923386506,41897.622561511016,41765.697442793506,41886.76638186787,41919.528434123,41979.75907468987,41893.735959180405,41768.68632185525,41904.817100250104,41938.02492732192,41943.935890631146,41917.56108585879,41808.341924813045,41889.81028142291,41933.45625516437,41959.30413344888,41984.348639333984,41828.0453104116,41818.39743340001,41918.98747473528,41950.481696397816,41962.99999999999,41863.96077164491,41818.60232834752,41892.23649003794,41930.062839630235,41969.0072670215,41974.740964799515,41883.70065962397,41835.69151071377,41886.23209246332,41923.44603799571,41962.63361270552,41971.75923315842,41871.621249820295,41814.717856984425,41878.96449036698,41936.0380288347,41968.17868662981,41983.60908361936,41902.31349781113,41880.174974873466,41942.90978250828,41944.1782189412,42005.66956552257,41975.81166198884,41859.0,41936.74151103986,42039.60574225186,42090.87607157193,42062.00626179724,41980.85393473259,42027.6102241875,42066.180210004684,42083.30375458054,42078.38769552054,41987.74507914593,41979.70769733672,42022.04410257444,42063.34078430993,42099.925462984385,42016.346332333414,41960.21713212322,42005.51948406563,42018.192288858314,42063.78920786283,42090.689689806604,42006.71415532842,41935.85024801822,41939.526094189,42007.9040113399,42059.0,42071.37707060934,42048.007171616926,41961.63031660622,41955.69213607128,42018.23517358662,42055.527020431946,42072.77734939219,42018.724193604496,41956.25813256694,41973.99326626897,42027.284360998034,42063.80414885006,42074.45184291596,42011.81524221199,41967.908645643154,42014.18437413548,42030.15473518037,42083.05024739535,42074.300830415246,41943.62079837028,41964.313517150986,42024.398911316915,42018.15715409961,42076.745945785944,42057.99999999999,41932.3943902261,41959.87072745683,42037.33651345701,42014.14862088946,42081.184329649994,42053.3141496556,41909.75036821951,41952.69018656331,42016.57467713593,42021.78410091972,42062.99007487678,42046.57741737805,41958.884832608805,41955.61811359887,42006.1009627092,42027.71684019923,42058.36814253771,42058.02825747281,42081.67818136317,41972.22338185433,41930.00419815392,42095.08409773665,41978.83850200813,42132.81840417474,118,80
66466.00000000001,66414.92265579355,66435.75126844406,66423.2313633187,66412.66002581273,66429.73001280785,66442.29761138892,66410.39265135903,66470.96311316351,66412.11736846318,66378.01897272363,66473.68300083968,66434.78880752395,66397.05121761677,66401.85679837302,66436.79402421913,66454.52201173837,66408.34345564354,66408.44018956751,66444.11578129126,66467.89736916847,66447.06294191716,66478.09249554813,66486.62878534994,66440.3620354425,66460.00000000001,66424.14064955767,66418.6761170468,66465.00621018649,66482.58529969533,66512.41057937084,66484.48810778606,66438.74246355164,66442.22232105372,66535.43693755979,66573.46095095607,66508.052370111,66530.84589789054,66549.4492238995,66537.61779295332,66535.82547775964,66540.46562735361,66578.2173071716,66574.29234367626,66574.76880357016,66613.2928725728,66650.51105384095,66637.3524320381,66635.41937903727,66679.17209186223,66615.99999999999,66567.64410956379,66611.90781044292,66620.26595046256,66593.17624813467,66566.6519812044,66574.46380436055,66568.75675048456,66593.12895012012,66627.29140446267,66581.93527686274,66606.24608769295,66639.77242295642,66604.78400902009,66603.35405184033,66575.59610596726,66592.2391420265,66662.23664526586,66630.11019138989,66596.08416889212,66592.15520968071,66587.22191793492,66631.4288138475,66629.6633699231,66628.4806793667,66638.0,66583.77316773195,66609.4999535672,66661.2609549688,66646.16113007232,66649.66697594915,66631.63147988894,66572.25752409121,66580.94783717357,66639.55842438262,66617.6468284322,66599.55382118226,66616.85977919606,66597.93582304074,66608.09965627336,66615.17641652294,66618.02129023154,66604.42469409492,66621.87551868874,66746.86147227275,66781.76509701042,66768.71707826786,66775.02312705913,66732.05137052618,66750.18254830744,66749.0,66725.89474782103,66741.35398942878,66676.18011267067,66595.63728758236,66572.6534869849,66568.91803570274,66566.91566434116,66578.16424870965,66597.22513056081,66569.53883915955,66581.08145159064,66652.92937821586,66652.75320413256,66641.5603557516,66648.96765173253,66617.00116845501,66606.18804791234,66599.77025834723,66589.86907113559,66592.94222313724,66582.59392254651,66594.16685860675,66608.71422603431,66624.85891502205,66651.00000000001,66650.5583727304,66650.63647203657,66681.87063710742,66702.53509747639,66666.22347436288,66695.85075158383,66755.0280029858,66695.76345119975,66658.60714591824,66653.59747684047,66677.71114255639,66760.5573064518,66756.95219190004,66762.29445232505,66805.83515452266,66783.51519551083,66797.81224774056,66844.99084879235,66837.10292871718,66838.03489067128,66894.75639504362,66890.80245207305,66833.36382475181,66861.81758679467,66882.0,66817.86947978636,66793.89226433465,66811.2378040672,66816.27223867686,66859.32725064062,66902.39766990555,66866.34697601185,66811.51190784303,66808.13272625342,66802.2028931083,66759.82392139509,66765.25126260075,66788.8215651754,66767.58570815412,66790.7989806109,66811.4603996719,66770.43582520686,66774.37288964879,66767.25032048742,66722.91717864088,66751.32190873688,66756.99835978687,66731.05898044695,66738.55792326386,66704.0,66705.86767562534,66738.64002329254,66721.0663786179,66704.9471226643,66697.04551879624,66702.3132668,66704.77262791853,66729.47286205334,66748.41796989065,66733.67627783652,66737.03714435836,66735.8243359743,66762.39139508475,66741.55307537202,66729.2495250381,66754.31735226899,66718.52291414262,66783.01192307241,66781.13327752729,66769.94361416288,66817.4793806062,66720.26995571669,66804.7204655406,66766.27941627799,43591.0,43561.21585422781,43533.61742366086,43578.63692482581,43540.88937288039,43555.50458314599,43540.119214022474,43533.16127143488,43553.13282164589,43514.99183709723,43527.03083627246,43552.870768244764,43517.80068828328,43481.24721141661,43526.86800713951,43549.29855037614,43511.376208796486,43510.00214245095,43494.71792733502,43510.326181366676,43525.89557179486,43521.96805312045,43535.506264455085,43498.322829868834,43492.28021901959,43482.00000000001,43475.42878764469,43514.12983781063,43487.46895675251,43490.396356424186,43515.33867637586,43477.61883572824,43447.826653939665,43490.740351162975,43541.82059608746,43506.743882102724,43516.41209568286,43548.744848806346,43525.069699928696,43532.49714293065,43521.35921506433,43511.907474969616,43534.94845152313,43530.33892064288,43516.66752368077,43552.874035601824,43582.422863782325,43540.64567557765,43563.45402780167,43577.0953453526,43513.0,43517.67089741348,43522.930805566386,43525.32741627463,43524.16797482826,43493.16931982154,43496.079862026905,43483.61033173437,43508.04094834037,43523.84743848322,43490.56117431828,43519.79104914178,43518.92869318742,43491.82207425648,43480.156529782245,43459.30282073462,43504.79349673436,43531.481476585766,43491.20409540744,43471.36694949573,43467.005016130235,43489.51916865485,43506.88328375552,43483.736030132204,43497.789766201924,43480.99999999999,43435.22442519946,43495.525863742725,43515.053779421425,43474.39716253429,43482.7921987425,43450.595235647306,43424.580306675256,43447.07581301532,43468.0362352505,43450.15858675793,43430.41999714553,43467.59516160645,43444.42399880746,43438.59707580271,43471.088354223604,43414.58176846849,43439.4763502872,43520.31120436555,43533.005232791045,43534.33120537772,43520.78348231994,43500.69969263645,43488.192398299594,43515.357460340405,43521.00000000002,43472.90504926344,43470.002223002986,43441.340752861004,43365.34384490289,43360.34339076988,43387.28677516793,43372.15757650761,43378.50022331402,43396.5830173544,43382.02685769001,43401.03331959092,43413.08893913126,43400.11893165433,43404.65798034168,43394.20379367435,43374.06825932473,43353.75177624376,43363.1690606251,43371.65193689811,43353.382315530165,43355.924836970225,43356.09829962221,43373.424990571395,43395.73848070697,43389.0,43382.15124720285,43390.418918429634,43413.758763370555,43402.55771731471,43400.84953575502,43430.63156556634,43411.415419008525,43383.991236722635,43374.246381933095,43356.5086362571,43380.269070068825,43432.24585154723,43431.61872816544,43433.35391125617,43459.39999752488,43450.36784594255,43460.08177937567,43489.244953163725,43498.99215202928,43498.080242952004,43515.06886637825,43506.4657453425,43464.71300626563,43497.239105344845,43476.999999999985,43430.80270275197,43457.57269424137,43435.607057307854,43459.63587022456,43475.668611179295,43472.281903802286,43479.04849852295,43389.86085051397,43403.69417513874,43404.79079715256,43343.57046548038,43412.13821622321,43412.64124269546,43397.494960958655,43435.98363187594,43409.6613852221,43390.462387505344,43394.0326323476,43381.2039063766,43356.57028801054,43367.07475952911,43375.67303466061,43354.92417898708,43354.86651396286,43352.0,43352.064009433634,43354.733735642665,43356.28550466897,43344.06313754687,43322.84222872501,43339.07157570007,43345.923683608824,43346.621374455266,43360.74799514798,43350.06214769367,43346.404538987365,43361.71417451744,43349.93251733792,43343.8252521782,43353.97297494785,43340.25384187605,43353.7017751606,43357.336663837814,43360.73782763683,43374.27888728322,43335.47158685826,43354.45205830856,43356.88511376346,43419.75793274789,110,78
67309.00000000001,67299.89996587475,66910.47539555046,67148.94866460064,67098.53642951533,67215.62290844179,67077.58331865321,66998.21055941847,67050.47471370467,66878.28349560295,66816.47297207247,66659.20312946709,66665.75081653561,66619.41464557206,66495.74912424394,66535.08852828815,66466.30142403462,66552.5989079667,66514.01792929838,66407.57851378575,66480.98264973906,66482.95646221303,66537.06331605793,66483.89101884901,66440.68723973432,66485.0,66425.638002362,66335.22169108686,66240.59890080299,66288.71193083606,66326.14782815299,66330.04606743006,66353.51106541362,66269.38595497441,66270.32538014096,66305.5456599984,66316.07266752872,66281.75815631845,66222.55659949637,66264.28286165174,66276.24284298297,66289.53295458257,66234.07161764473,66163.55614889265,66213.65030963796,66184.41932363939,66159.8916182966,66126.44334940548,66079.28581997038,66132.95773256879,66136.0,66110.28536592878,66077.18675333458,66062.05854053503,66085.01028714988,66083.48401199606,66077.69072110053,66026.88658380831,66045.78762189031,66081.86513426926,66033.71173116719,66037.08375610906,66009.35849085954,66001.93981663152,66033.16373827755,65989.60934761187,65978.26678255199,65986.64195329446,65987.26685861727,65974.40013092778,65947.82995473722,65938.79501526598,65933.75366299992,65956.42735214121,65933.15884940617,65909.0,65919.08733707135,65894.01155390692,65902.30157804044,65891.42991802804,65853.9255384472,65851.23841770143,65853.49553269711,65839.73709437677,65813.79928502144,65811.42271799155,65802.77212658428,65825.48924419751,65821.57706269922,65764.7676882766,65790.1374162286,65794.70468787188,65795.19833049343,65793.03168674736,65732.39401041978,65752.42451540305,65763.38142552841,65731.98542890513,65711.28613531866,65694.59253604332,65710.00000000001,65715.25715802549,65716.98230925918,65679.96232319128,65676.50300675585,65712.93773702317,65686.98637357683,65698.7887416063,65677.38773056134,65654.40056408643,65695.5648480468,65661.03158819507,65650.8851225302,65651.08347623673,65629.26879681091,65662.31626510968,65639.16181266835,65602.22817645794,65610.39602906082,65611.26527749682,65593.3344249755,65554.05228663054,65564.26445398833,65601.87445397335,65638.40810337444,65673.0,65672.54741372897,65715.88265849951,65742.26383855566,65729.93768796069,65741.19588525819,65710.59289059143,65726.07713639988,65747.31021558217,65715.80129359501,65745.17003360267,65750.4607220506,65735.53909885528,65748.29472150895,65727.52406770301,65723.40555129273,65756.78162516895,65749.26018548544,65718.44859581297,65736.91659458466,65740.42514541993,65750.58176625737,65760.51306326197,65724.80193776898,65750.082719685,65754.0,65730.82823476326,65740.3390636726,65732.89364366281,65745.86976020485,65730.23693132718,65710.06273403735,65724.40461364968,65742.2167009984,65740.41667703455,65713.09188933161,65712.71118637844,65713.07270616913,65719.36186893514,65689.94057698788,65677.34893813229,65722.6300594316,65724.0596294317,65709.48467113131,65653.79569122841,65681.98474952164,65714.39399783708,65673.51449224396,65698.33689248002,65647.08827048718,65681.99999999999,65684.29618396868,65617.12332058804,65676.59945879695,65628.6686227313,65679.36157475875,65674.44969651723,65583.68851536835,65641.88449557599,65633.43624250342,65673.30971851613,65616.17950884058,65585.14095768437,65627.95541001904,65621.65372995798,65675.39169488703,65565.46030191495,65612.0549861638,65615.73908105826,65623.43524225362,65699.94286528835,65505.3681038815,65684.6258500636,65498.962895938435,65842.3408375376,51649.00000000001,51602.724133943164,51409.69979776328,51629.28018943669,51442.186652262855,51548.9592134259,51428.59516957126,51397.16826841158,51428.03087087485,51254.421854405104,51271.47290852741,51179.542186226216,51161.711672376914,51120.87461953909,51046.65665886271,51092.37299219179,51058.41625019801,51086.58121687985,51058.20218001799,51036.20838635766,51067.55261909877,51052.264238571115,51058.04526088772,51037.14714431256,51050.34853779134,51014.0,50945.64478088889,50908.195191117906,50888.91173986655,50923.86325944337,50909.10601377729,50896.23162516847,50890.36028364387,50871.522344314944,50872.10957177282,50870.47187211072,50857.16126780126,50821.195372166614,50836.863449531316,50828.36130998953,50809.02342799245,50810.620844810575,50764.16766011501,50768.28018313213,50761.775810381,50729.01475730294,50717.92304993311,50697.43155816556,50692.805143889076,50690.4051410347,50680.99999999999,50649.65773279868,50653.57074942669,50656.92288939478,50633.081645525366,50639.394103422324,50610.26339863218,50603.87214934559,50616.58777011794,50598.64254164428,50584.42704229481,50571.79500206373,50570.41992952033,50555.10259515389,50554.31642275134,50532.860235571025,50515.6914713953,50536.90655728482,50508.953368628136,50502.496321224135,50493.96793084586,50470.566415582536,50484.40565119631,50476.6158854344,50460.42498651006,50449.99999999999,50451.36970223252,50440.14823643992,50435.7232185861,50427.871836627535,50392.590539755416,50405.936465453444,50393.427799860765,50371.245416313606,50375.12464626634,50351.56596769967,50359.49501991136,50361.601590624035,50344.98979301129,50337.40221464965,50336.688723962645,50333.76633764076,50316.54715870548,50315.4402183222,50293.23693220264,50289.74399358615,50292.33889734968,50257.92789685022,50266.475054664195,50260.22390092211,50245.0,50251.53888920826,50227.082571504594,50220.59378491546,50227.02067423492,50219.72680633872,50208.40256633899,50198.699191872816,50194.990250171,50194.96153993079,50197.13452947123,50173.841652639996,50165.91785235991,50171.21411582056,50153.824272775695,50160.20022301588,50144.355329999606,50120.21286406924,50134.52707715275,50120.21855569032,50109.12470735442,50114.679853474394,50108.99558142845,50120.49547764034,50140.32968479929,50176.00000000001,50206.904385260845,50185.78391020029,50155.31344718199,50155.89876545708,50142.17643976413,50129.42157579056,50153.15243737696,50156.96372815839,50147.80886988838,50150.79915442969,50161.44392218952,50140.93111633552,50110.36088201679,50136.55113725264,50137.73952581739,50172.00562685835,50180.259495484206,50111.295892026734,50151.65467129144,50137.904884678785,50120.891286587335,50149.91362666389,50081.75536624424,50099.16179704552,50089.0,50054.54311976761,50088.987412288516,50075.39162814416,50082.17085085326,50069.8408734154,50063.656708111805,50073.9660044153,50077.8094657287,50063.68737449902,50034.9111369489,50073.51379035541,50047.24446624557,50044.3661438649,50049.68185081688,50010.30240853337,50052.382509165574,50016.87509855778,50002.920931395645,50015.99295592647,50000.36448566375,50000.614733522445,49950.87505932873,49952.00907061163,49933.476473672665,49946.00000000001,49938.07510344401,49903.73791419189,49953.743298601315,49921.659442383796,49951.1966597532,49941.63157743647,49904.101327020944,49935.132402694384,49903.159846259245,49924.129322045635,49883.04131605047,49906.28606231371,49907.42045974281,49885.78916087338,49917.568339807985,49827.63374847499,49924.65387892671,49861.23027751022,49876.44162627964,49923.609089237594,49772.94823737784,50034.6939327199,49704.97124150058,50121.362435340154,105,80
64927.00000000001,64872.867743739414,64998.696819450604,65123.44671140779,65127.28431496735,65144.9478968934,65140.59158070212,65042.13926944861,65023.97521157951,65003.08906711591,65000.89686462799,65046.73087192874,64995.450690305195,64973.06958803401,64987.17458422987,64984.54923160619,65013.547437259665,65002.3850809593,64953.30434388495,64953.219059182535,65000.71161778277,65019.4187165385,65032.68398283399,65020.26873587158,64966.6602280173,64992.0,65000.63229645509,64984.68914694577,65034.02533957909,64992.851395239384,64940.001405109644,64994.639801836376,64998.248137607996,64981.96842980496,65022.48457263271,64989.86773218603,64936.173157772544,64977.02559724689,64986.82374077369,64968.642040668325,64998.32742673034,64976.19490496432,64938.84503382355,64970.23579187059,64991.12456006677,64988.77217691605,65008.35399102551,64997.90839602484,64960.44858034335,64967.317096408246,64982.00000000002,64981.44985339115,64991.49147273776,64975.86603452518,64958.27949419701,64982.47934505233,65000.31836433358,65011.04254283326,65026.27405466315,64998.131546520985,64983.78835905296,65025.322783730844,65031.27709474483,65020.807768435865,65039.74583515497,65020.38693352622,64990.91797609501,64990.71422334243,64973.05523330765,64974.9478289623,64989.58853143787,64969.49445553029,64961.88540241404,64963.94866172687,64980.18623960769,64971.00000000001,64923.14658010048,64979.00811412665,65027.49647828902,64996.3551582415,65017.93361441554,64992.91048962585,64940.5594598104,64925.193277719845,64873.69529329924,64864.24973649644,64880.48729708559,64860.14698756779,64863.78064690371,64886.32587794355,64886.56405432808,64888.39209124113,64912.62300405312,64909.61349338038,64903.431897103954,64918.667027332616,64920.92263726834,64937.76393844997,64938.43654676313,64924.387950588454,64935.0,64934.037305846614,64937.147118908724,64956.27506202411,64962.329495257,64941.94375372715,64933.522418833956,64950.79926824835,64951.31967091745,64964.6127413792,64966.74017505135,64953.54179649358,64969.999707639145,64951.87779780213,64947.85011907315,64979.789329266394,64966.95566099628,64972.0433885518,64983.34284409554,64951.29537611616,64953.03995654178,64985.9445490387,64991.20671237237,64990.88646882104,64997.9517703433,64977.999999999985,64963.31698637241,64977.15447725147,64975.74704644057,64982.11762302286,64994.40282420079,64982.547093668545,64988.90879618798,64991.98467044506,64981.22750184933,64998.17107356945,64998.22101938851,64988.395861757184,65001.536668628694,64988.73160082315,64978.69242780831,65005.52126568734,65005.738792349715,64988.49932823626,65006.0134956496,65005.14335477648,64986.99473562317,65011.37825385711,65009.354746173674,64995.61047641296,65024.0,65011.84038829084,65009.87731470434,65030.30985249974,64996.57955165291,65014.94790149243,65044.185289087174,64994.63935763331,64996.959572844295,65037.49255743793,65035.093688446264,65027.221871042275,65013.12670438387,64999.9024615146,65014.37227918399,65037.697566443356,65035.02739348655,65032.84666854948,65050.350087815714,65040.52953518183,65053.303306865375,65064.286978485434,65019.64860135333,65030.97855012801,65028.85594844904,64989.99999999999,65028.481806107324,65071.660586088845,65110.688900971916,65119.563493668495,65081.63625851379,65081.58887769503,65090.32343987775,65114.837784156196,65148.331114507746,65187.625236917804,65225.740593539966,65238.47426126758,65285.49541557769,65277.434678799844,65233.4730666782,65213.01488691555,65174.668046927494,65190.2674299534,65173.72030731058,65184.071253133225,65240.626413006175,65181.59055771641,65165.73700899178,65112.23903075021,40063.0,40168.26272942502,40126.724241621436,40178.73624027674,40145.89212712768,40163.67359150433,40117.2336095649,40106.74080760782,40084.0478329488,40041.70267426774,40076.748092698406,40037.36765512207,40013.97548235767,40024.45206909314,40015.20303826881,40006.82091109536,40001.13648770264,39976.95899127833,39932.58443337479,39965.04043682984,39960.030339644225,39928.995279240524,39947.2798915903,39907.73068463726,39890.99694863845,39901.0,39885.47638385494,39877.79454966896,39876.818781191985,39866.50499698386,39843.28149549932,39848.392386239924,39835.30819665861,39817.81296957267,39826.91417020267,39807.58623300825,39793.704165325085,39792.66426802507,39785.11042759746,39771.528201308356,39770.97889465413,39769.23342081925,39743.66507277323,39751.953175045324,39753.99375024131,39733.59028112384,39739.14922032631,39728.99878699315,39705.83120381417,39704.10104224874,39707.0,39692.829464935385,39687.33978123903,39690.43537180292,39673.98294984581,39673.65462650981,39682.90849546383,39670.74241687064,39667.36563750542,39668.00201908428,39656.84395549242,39658.78073279296,39654.59449810868,39640.3583062909,39643.35590426609,39631.742407298196,39610.75084736147,39610.75551228886,39610.90420196113,39594.76511896654,39591.83734505555,39600.91838387084,39580.87245149848,39577.3499572868,39582.16651084063,39561.0,39569.160489108035,39592.97640713485,39602.50670319051,39583.361945484605,39564.244734998865,39560.261851930765,39530.97151406105,39516.56244309735,39506.93055338869,39502.74847978268,39510.656138627084,39495.09979738982,39509.8643626242,39507.196289220345,39479.211047616074,39496.20720640909,39491.31175909323,39478.687458365,39495.51270227262,39487.79279330959,39476.94678149236,39490.24740624255,39479.787777597194,39463.54587980216,39475.0,39467.16379604431,39461.74154798364,39472.79619425657,39458.4478921011,39452.24958849504,39462.23777745356,39458.89309057777,39457.86186124207,39462.51519114327,39452.4879660031,39446.45478903518,39451.98596533858,39441.15374175917,39441.642987740706,39451.61736829238,39435.99276188372,39435.13409744989,39439.835124298625,39422.4901011711,39430.23530764023,39440.625598745406,39429.47071312409,39431.97526531831,39420.82677741818,39406.00000000001,39418.476845867175,39412.50128984404,39399.383400254934,39411.206605295876,39407.260703939086,39392.8608341052,39400.98446181257,39396.21168382949,39387.194545323444,39395.74537986955,39383.34892572941,39376.86922905675,39390.661740387346,39378.976437410674,39368.72978922535,39388.559203937264,39381.16669786755,39359.23572671066,39371.62366481901,39357.87506382242,39352.19111734389,39373.807318327585,39351.967584214246,39354.20242625808,39366.0,39348.0520690766,39353.895508160516,39349.56751529319,39338.48649668338,39357.4344986429,39354.658674809776,39324.543770337565,39351.438538079405,39372.10895004585,39339.55813668131,39340.92651074388,39328.37673915118,39317.512868280115,39336.46258603301,39336.32465150271,39341.955540143514,39340.216391811904,39340.43708100749,39336.40171013341,39336.21149830216,39332.98174160662,39312.16334344751,39322.44547347199,39297.263704633646,39292.00000000001,39331.820293458346,39326.366097053986,39331.77442996727,39330.444368995966,39317.4846126785,39323.65931911108,39341.93586071676,39342.25098830998,39340.903206411276,39363.442081505906,39351.26250041089,39375.565437146666,39368.99924600602,39332.64397463555,39351.318886713736,39323.70275366714,39332.081988377024,39321.02457048069,39322.72051537137,39356.547577122496,39360.5562039515,39409.75045421567,39275.31920035954,39469.25392942221,90,66
63208.00000000001,63221.22409248002,63164.04566744825,62994.14962254458,63126.526521780324,63212.48169099794,63288.33341281804,63376.820293018565,63314.91482605754,63173.078689881484,63186.961866312224,63278.0780044989,63376.7659183136,63451.67207752551,63258.92047248697,63231.08678968999,63426.74443417165,63467.5295624729,63556.69952603777,63578.577346212056,63428.53385544743,63306.80733367229,63335.104981124954,63488.87430562124,63573.83960729555,63639.0,63756.60891537508,63707.31048874275,63480.68314223619,63492.50447254325,63675.41072262807,63670.40483111868,63665.26715731428,63664.84520997269,63531.89603559748,63469.61071600216,63566.05062313561,63638.45612646294,63703.553025789995,63791.96318540184,63612.22874041546,63490.06508285619,63644.63619964472,63646.27436198704,63705.97898431357,63756.075511111216,63528.75222222647,63485.54091902593,63592.90042148111,63690.93616309109,63756.00000000001,63541.684021945,63492.12759653418,63636.47286016287,63616.32247977555,63774.81276728777,63774.48317880979,63518.238479055195,63553.02390833174,63656.34997111792,63720.26863885728,63783.31321604894,63831.407749018785,63822.002209272,63647.00566564081,63624.46415031778,63707.99586467558,63718.7516454052,63776.61329439993,63754.42606038094,63609.83562568385,63590.54925718846,63697.266229336004,63709.72722824895,63807.77492565007,63824.99999999999,63600.42984732178,63578.904419359555,63653.79499574383,63704.603090706936,63746.76575106508,63801.27686209965,63869.78791295975,63646.7319729792,63551.527387625334,63689.12767016385,63682.4545837998,63762.51677671017,63810.71397880607,63670.223208198724,63582.53810654341,63630.94763496414,63689.698320348536,63755.59376132737,63808.49440631783,63700.569512362286,63607.14419240543,63605.31249852341,63666.629818739064,63747.192957614316,63790.99999999999,63844.38014366965,63687.86003349465,63586.99881141759,63714.66414198815,63725.04175461375,63801.33291407671,63838.54317559034,63651.74220705557,63601.57474084333,63699.66183699112,63760.49977967471,63848.69680574339,63868.69504320237,63689.45228706319,63653.64636453673,63779.38387482384,63780.800804735,63855.85892178812,63860.420881542326,63652.81548763967,63638.04638147411,63738.83154635326,63786.515322757514,63815.792358358354,63676.0,63610.51628611682,63689.440734022384,63718.39320131132,63836.36842608045,63800.486676845896,63650.6603601216,63717.85483214445,63791.97659332029,63867.909059922815,63827.9248618232,63669.92184097714,63760.03016056037,63854.898678434,63863.1502255162,63935.331748558645,63837.9449948037,63672.245644370996,63679.33699578506,63778.41976480085,63841.98552307004,63870.116674580764,63956.56878559345,63871.659888141985,63646.47677620542,63686.0,63767.083732678126,63838.22755561121,63959.87429475078,63927.18246404787,63864.17313888761,63757.90464544067,63806.88314032295,63924.43588761746,63918.826377417616,64063.31561311714,63952.3185022613,63744.19816616633,63809.80711981487,63876.11876360802,63968.272674549306,63975.99462342976,64060.83006343939,64040.23377536065,63766.52736493073,63756.946908997175,63835.280496788284,63891.91730342848,63926.09914956133,63981.69558760522,64022.99999999999,63778.84520433428,63745.29099299568,63877.033921846014,63895.05897276119,63984.80709394445,64008.45699196705,63985.22624551876,63851.745048973295,63792.01607298667,63915.74118465204,63916.41671389335,64001.3119615058,64044.73458011876,63815.41166996101,63734.875352425726,63827.15656393433,63877.55932864953,63928.04261943023,63956.89409538015,64011.246123352306,63844.504343373,63610.73279897188,63858.369208437995,63735.40417152362,39426.00000000001,39457.88312365626,39388.84608362763,39390.86627042208,39395.17697945366,39431.20322183227,39435.00293959623,39476.605099691886,39421.73264517854,39369.11176842292,39421.70729555167,39417.677646300464,39436.10242572412,39435.57340312266,39399.9887258888,39404.73067942003,39437.00314144567,39460.976649398595,39461.46888884215,39454.834721034764,39386.91008039726,39368.75682266458,39419.14464399592,39433.654979270694,39448.80649504292,39476.00000000001,39495.767077075485,39415.57382103977,39374.48178011905,39450.130174907674,39452.486883733975,39455.04407618462,39445.50062610958,39380.98717013631,39375.89522465033,39392.14126823494,39392.36780005528,39410.9861733523,39433.75119554644,39392.85633417773,39356.99840843859,39377.20449175699,39379.29318864676,39399.4813131744,39401.043713468665,39337.322064955966,39319.13194405342,39350.72853416454,39354.26952109317,39378.687767728225,39389.99999999999,39325.803165474754,39323.17086658694,39351.289652242194,39341.95712452392,39353.87895287243,39319.178906762805,39282.073460980304,39309.034941971404,39326.536300854525,39326.26060002276,39352.587773758896,39352.073633012675,39284.94611059801,39280.5006926128,39306.07937264413,39290.61464706087,39316.27544710166,39301.36215895595,39247.993061152294,39259.90509870821,39271.3215757086,39269.376958083805,39294.64372802505,39291.888066901905,39249.99999999999,39232.83338494972,39235.407198872024,39244.030428654456,39261.83045249638,39263.003306690014,39263.138762597795,39252.04112516737,39208.14798392737,39201.00185429853,39232.514022487536,39226.307029867145,39234.98942997932,39251.66400217494,39192.726764179155,39175.04821981368,39210.6520382699,39197.28136784684,39214.69427439192,39226.81512915133,39163.56303010299,39152.91686557664,39182.45171009992,39171.99340547826,39193.40822684777,39207.99999999999,39160.08547784339,39144.11093121676,39160.75046997854,39161.963585582445,39177.53923996499,39187.42802800049,39155.16234855171,39136.55370823198,39145.56968387057,39156.79255917774,39197.51959580664,39195.908673835824,39140.206983576456,39141.684283742434,39160.82771045198,39155.79484819233,39178.51312942441,39181.68736828936,39122.60877708785,39108.524582895836,39137.13217703703,39140.84149029459,39171.24590094189,39153.2289366152,39098.0,39117.7575980553,39134.12788062394,39138.600916402866,39137.88198836701,39102.69450826785,39097.87753925114,39123.586357064414,39144.19161198133,39157.17141196741,39139.92594141346,39113.25338000945,39137.762494333496,39158.40163546337,39155.03212637247,39167.521429229106,39125.42005117727,39085.583237797386,39118.1109554287,39141.80015875964,39138.72189752712,39144.242745182004,39164.242197514875,39129.342800922444,39072.770401908274,39100.99999999999,39125.6077838142,39123.971514435754,39164.7768492826,39150.423774060015,39096.35657205362,39114.690882707364,39128.92336371476,39133.088951264646,39160.18947285888,39138.84940899617,39104.12022795895,39099.42783879968,39109.643807540066,39125.575861197874,39145.50040749895,39152.703439468576,39150.94649976848,39146.28580465256,39088.715488573354,39079.87339353452,39117.47533615377,39099.09451078009,39113.517051015115,39127.935448390635,39106.0,39073.10701222479,39071.97539399571,39105.42145409549,39097.711107837735,39131.464261495756,39124.00585582222,39060.7963076288,39070.62708465742,39077.637122901244,39091.654786695086,39103.33467895657,39114.48325981695,39105.01400164621,39063.44096918544,39058.26614643652,39060.12410573177,39093.09468293249,39077.735185254394,39083.69832598083,39093.479886117144,39014.609268921675,39049.55757598939,39015.80892497268,39103.02099179938,123,82
56473.00000000003,56518.57639738529,56696.14213630276,56829.17419606749,56811.0405212475,56846.27871197188,56815.39466139271,56884.43548385755,56932.00391998418,56975.685988988065,57024.72294326791,56940.521994575996,57004.814458035515,56958.63475200084,56643.22896273743,56667.500301318374,56824.45623112037,56827.51681321913,56895.068869950635,56813.49369141988,56778.65579023394,56801.48901108187,56778.74487171073,56982.945288810886,57073.35602053807,57109.11554763674,57170.5051116118,57143.14863889229,57186.000665861444,57138.090089572164,57119.02546581851,57108.19470140076,57086.91609145433,57080.56386082439,56978.33391142121,56993.97564282992,57029.17304232356,57101.99313102956,57210.61335945355,57249.85542986511,57241.548788172295,57254.48079770633,57389.806670815946,57277.70272333957,57108.02472426201,57040.063420373874,56967.08101914287,57015.43602452428,57020.46315540982,57130.90164931484,57105.6138430216,57078.6474046184,56999.55492876271,56788.95336524948,57288.83825684787,57267.37924712676,56673.64562015771,56700.52250769588,56534.82850266283,56510.57662037955,56727.1548582659,56663.232386784635,56657.090770376504,56728.59245436336,56828.37646467426,56812.226416373414,56836.73484884678,56917.78539114089,56789.10924474303,56565.71173802773,56457.19597829443,56404.62492231463,56339.49993714068,56663.008607836266,56985.94078323693,56817.98367887,56433.20720483317,56182.11191893379,56201.78722946917,55968.478846081736,55830.413989694425,55953.002833776,55847.37503903591,55822.89463706891,55695.87988998308,55580.73601726194,55574.21728002623,55496.04944294929,55605.23367502791,55606.62990956118,55485.92261343847,55341.487955539844,55279.13427112132,55355.8501676357,55313.53179697309,55376.22164935393,55444.61490357876,55437.11858558587,55457.7969409586,55445.27442073146,55482.29429430099,55484.05108498798,55539.26902436507,55587.53003529731,55563.576035392594,55567.31692909543,55502.280237032326,55494.981942610524,55562.37793750017,55610.29615354442,55616.855611304876,55620.17495101614,55670.77855181976,55687.458174258594,55717.64357026363,55706.45635104948,55646.14854982966,55638.63901469922,55640.5595341198,55669.41344814448,55665.9769914428,55620.90362094845,55645.73952300318,55697.81977708162,55736.98473660118,55763.97594369712,55751.023227062695,55758.4705168805,55766.13526410657,55758.076700580044,55782.29259122589,55775.775631423574,55788.97362019002,55798.808669369224,55808.45434554886,55831.606105262435,55790.788144240214,55833.313014632346,55824.72838498955,55793.37533755867,55859.129002105336,55821.28404944918,55828.439780394445,55844.36436610246,55839.5035338905,55832.32534615382,55728.29887087949,55711.49855462467,55681.77582118775,55691.08852213339,55862.726713908545,55950.71866885703,55875.022369362014,55829.09063854088,55900.587527479845,55883.778279729704,55854.62924726966,55832.31406725446,55734.480148141425,55684.78246742364,55643.37287376152,55618.711259488846,55585.42818900759,55627.551598192826,55668.25874773675,55644.56107670864,55713.90717029078,55678.90045408436,55705.86374565983,55757.14295893222,55661.30335775286,55673.06079424034,55682.99698546233,55743.59840694937,55782.38798177797,55726.37710773864,55815.64623071457,55892.762142819236,55845.744721477175,55818.33913608932,55861.31106963963,55817.68942962936,55761.82872359115,55739.97511689761,55675.900819939554,55687.80821321492,55651.57528172332,55639.621246205315,55655.173769275156,55654.338119457796,55747.04373418185,55749.930655319105,55715.972655562204,55686.34344244828,55695.301766367,55657.68974838391,55613.684804710734,55729.51208447884,55725.63113790353,56028.15045198133,38962.00000000004,39069.194944742936,39149.349115447956,39127.27460906966,39121.884652200664,39141.92599041587,39175.44444373708,39153.960897237564,39149.06736363224,39201.41342901648,39181.71134336249,39150.37185123742,39170.22823891349,39109.3452459093,38978.65948411671,39004.67725715051,39073.74899281707,39095.92534581572,39151.50274760889,39086.23322119116,39035.2068915396,39065.50216340882,39159.57434633298,39311.93806590347,39292.25849381402,39308.21600906385,39369.1759734705,39356.266618444126,39442.112168208034,39455.26208936676,39400.97430713919,39388.678471312334,39363.095858834655,39359.91025965521,39321.847132413604,39261.43327462309,39337.589985170045,39437.424799930646,39413.660215613025,39444.324812070256,39453.43589071448,39500.717770456395,39561.411617424375,39356.793723353374,39328.48400268576,39305.683765225665,39133.44381004971,39242.33096225109,39287.588681101064,39345.582602503535,39318.464512028906,39133.54980013246,39204.24660881281,39099.685249260074,38989.153381069314,39045.67025139528,39021.41607388933,39018.16082657427,38844.41320796155,38987.94202849301,39230.17364841605,38938.01029813297,38998.621666552055,39275.133774434675,39172.98652910041,39175.26299943786,39254.6369315472,39189.74517534158,39040.023942002226,38987.0568375443,38936.69302508081,38627.54260445943,38685.51036807987,39046.2850507866,38808.816393003915,38483.37541652957,38715.55476182688,38896.6500215147,38590.30944534613,38400.59728874973,38504.741977704645,38532.07638508937,38726.47135774162,38692.31913410528,38405.13862442336,38514.03356389811,38526.421015274755,38598.660819564306,38836.211588253755,38682.897818354286,38539.16065467723,38496.34628942541,38472.217136008585,38513.38490762237,38545.03252367704,38629.35965845447,38627.4769052854,38659.012993712764,38688.94440566184,38669.3996637499,38725.188480730074,38729.799410786036,38772.11181195703,38765.43825490287,38726.47944357039,38740.79989853199,38688.85298560289,38728.47500532842,38784.492221188,38797.60192473603,38808.6133777814,38807.934181397206,38848.69247526697,38828.519879686566,38829.43442835401,38825.46428829297,38792.05228699947,38816.30657644725,38810.85521507513,38823.68627287469,38791.2613919131,38772.575400651585,38834.585159781316,38834.563676505844,38850.59448030962,38846.56321365795,38830.666494767334,38848.89810681811,38828.75066854352,38833.11292684927,38843.15948296057,38843.260035051855,38838.066208786855,38842.42302935629,38858.90589265771,38837.04820304087,38841.009809906245,38853.56722158739,38861.25295743444,38873.556318635514,38853.10496361968,38846.042178355565,38862.73394943782,38879.67951425932,38858.80344993178,38843.19670220058,38837.03540871711,38791.685636683986,38805.65904087657,38864.207187712665,38907.3430508222,38916.756299253146,38909.157307849804,38929.163816516084,38917.640273088364,38917.46321498403,38918.09952676144,38867.38782457687,38829.85872215409,38799.499070822596,38746.09985452118,38701.64246583424,38740.52993387716,38750.2942357322,38744.58499408281,38821.272353636676,38828.904525800004,38863.74736805465,38871.311951748095,38802.066323766274,38833.75979753995,38819.49998379267,38849.495313790285,38904.40377419873,38861.394490263796,38909.94734201449,38948.45944265836,38943.28939501635,38931.519254503066,38906.739560619884,38917.711470802766,38899.816351936955,38873.82605371443,38831.11263456989,38824.43135849181,38817.467498557024,38774.61155358135,38777.77228335427,38740.72487506639,38813.60231316097,38898.38258766756,38819.30909832469,38821.998694552334,38789.32009646428,38707.84508171241,38749.52452813596,38781.114836284556,38824.47051166353,38937.21507893649,38972.15413075769,150,131
